,time,111111_40.595561_-105.14055_3,111111_40.596108_-105.140583_4,111111_40.595556_-105.140069_2,111111_40.596114_-105.140075_1,222222_ 40.596108_-105.140583_4,222222_40.595556_-105.140069_2,222222_40.595561_-105.14055_3,222222_40.596114_-105.140075_1,333333_40.595658_-105.139869_2,333333_40.595725_-105.140008_3,333333_40.595881_-105.139686_1,333333_40.595947_-105.139833_4,444444_40.595658_-105.139869_2,444444_40.595725_-105.140008_3,444444_40.595881_-105.139686_1,444444_40.595947_-105.139833_4,555555_40.595542_-105.139211_2,555555_40.595547_-105.139714_3,555555_40.596089_-105.139144_1,555555_40.596097_-105.139678_4,666666_40.595542_-105.139211_2,666666_40.595547_-105.139714_3,666666_40.596089_-105.139144_1,666666_40.596097_-105.139678_4
1,1681776002,1030.0,1049.0,1166.0,964.0,1023.0,1090.5,1039.5,1153.0,1082.0,1037.0,1310.0,1081.0,949.0,1005.0,1120.0,735.0,1088.0,991.5,931.0,1040.0,1040.0,1111.0,1080.0,1089.0
2,1681776003,1033.0,1051.0,1163.0,974.0,993.0,1095.0,1044.0,1152.0,1085.0,1039.0,1303.5,1039.0,960.0,1012.0,1104.5,765.0,1090.0,984.0,928.5,1043.0,1052.0,1105.5,1075.0,1095.0
3,1681776004,1022.0,1051.0,1160.0,975.5,974.0,1081.0,1049.0,1133.0,1088.0,1053.0,1297.0,1033.0,985.5,1029.0,1089.0,762.0,1095.0,993.0,926.0,1039.0,1033.0,1100.0,1021.0,1093.0
4,1681776005,1034.0,1050.0,1165.0,977.0,988.0,1084.0,1019.0,1128.0,1091.0,1057.0,1308.0,1027.0,1011.0,1023.5,1082.0,762.0,1100.0,999.0,929.0,1047.5,1014.0,1107.0,1059.5,1110.0
5,1681776006,1037.5,1049.0,1155.0,977.0,971.0,1084.0,1027.0,1144.0,1090.5,1061.0,1321.0,1006.0,975.0,1018.0,1070.0,763.0,1100.0,1004.5,944.0,1056.0,1019.0,1098.0,1098.0,1107.5
6,1681776007,1041.0,1049.0,1153.5,972.5,981.0,1034.0,1015.0,1187.0,1090.0,1057.0,1311.0,1019.0,988.0,1033.0,1069.5,764.0,1108.5,1010.0,947.5,1068.0,1019.0,1092.0,1064.0,1105.0
7,1681776008,1064.0,1055.0,1152.0,968.0,967.0,1020.0,1004.0,1206.0,1113.0,1060.5,1301.0,1033.0,996.5,1023.0,1069.0,766.0,1117.0,1017.0,951.0,1077.5,1023.3333333333334,1086.0,1047.5,1022.0
8,1681776009,1058.5,1061.0,1142.0,980.0,958.0,1008.0,1002.0,1203.0,1123.0,1064.0,1274.0,1047.0,1005.0,1013.0,1130.0,769.5,1142.0,1012.0,934.0,1087.0,1027.6666666666667,1112.0,1031.0,1104.0
9,1681776010,1053.0,1057.0,1142.0,991.0,965.0,1046.0,990.0,1166.0,1133.0,1038.0,1263.0,1066.0,1011.0,1004.0,1115.0,773.0,1161.0,1007.0,914.5,1098.0,1032.0,1109.0,1013.0,1110.5
10,1681776011,1037.0,1060.0,1142.0,988.5,955.0,1046.0,995.0,1084.0,1132.0,1051.0,1252.0,1041.0,1013.0,997.0,1100.0,769.0,1180.0,1009.0,895.0,1104.5,1032.0,1109.0,1026.0,1117.0
11,1681776012,1046.0,1061.0,1140.0,986.0,935.0,1051.0,1003.0,939.0,1134.0,1047.0,1248.0,1016.0,1015.0,1000.0,1096.0,779.0,1190.0,981.0,914.0,1111.0,1025.0,1109.0,1006.0,1123.0
12,1681776013,1046.0,1062.0,1142.5,995.0,915.0,1071.5,1011.0,1127.0,1137.5,1043.0,1245.0,1011.0,1011.0,1003.0,1092.5,789.0,1143.0,978.0,933.0,1109.0,1018.0,1109.0,1019.5,1126.0
13,1681776014,1046.0,1073.0,1145.0,957.0,940.0,1092.0,1023.0,1117.6666666666667,1141.0,1048.0,1242.0,975.0,1021.5,1009.0,1089.0,808.0,1138.5,975.0,942.0,1118.0,1011.0,1106.0,1033.0,1088.5
14,1681776015,1026.0,1081.0,1147.0,919.0,946.0,1023.0,1035.0,1108.3333333333333,1146.0,1061.0,1278.0,939.0,1032.0,1007.0,1080.0,817.0,1134.0,964.0,951.0,1120.6666666666667,1012.5,1108.5,1026.0,1051.0
15,1681776016,1015.5,1089.0,1141.0,917.0,939.0,1076.0,1034.5,1099.0,1125.0,1074.0,1252.0,898.0,1034.0,1005.0,1074.5,789.0,1100.0,970.0,951.0,1123.3333333333333,1014.0,1111.0,1029.5,1132.0
16,1681776017,1005.0,1057.0,1137.5,929.0,947.5,1078.0,1034.0,1119.0,1104.0,1066.0,1246.5,944.0,1037.5,1037.0,1069.0,761.0,1096.0,984.0,951.0,1126.0,1009.0,1116.0,1033.0,1138.5
17,1681776018,980.0,1060.0,1134.0,923.0,956.0,1091.0,1032.0,1087.0,1091.0,1054.0,1241.0,930.3333333333334,1041.0,1043.0,1078.0,824.0,1092.0,994.0,952.0,1125.5,1014.0,1040.0,1040.0,1145.0
18,1681776019,991.5,1063.0,1143.0,941.0,956.0,1094.0,1030.0,1094.0,1082.0,1084.0,1237.0,916.6666666666666,1051.0,1049.0,1079.0,834.0,1082.0,999.5,953.0,1125.0,1019.0,1093.5,1056.0,1160.0
19,1681776020,1003.0,1067.0,1149.0,919.0,991.5,1097.0,1024.0,1106.5,1084.0,1086.5,1249.0,903.0,1062.0,1055.0,1081.0,821.0,1077.0,1005.0,952.3333333333334,1135.0,1030.0,1147.0,1028.0,1164.0
20,1681776021,999.0,1071.0,1161.0,897.0,1027.0,1105.0,1028.5,1119.0,1086.0,1089.0,1240.0,897.0,1061.0,1050.0,1081.5,808.0,1076.0,1009.0,951.6666666666666,1146.0,1041.0,1139.5,1000.0,1152.0
21,1681776022,995.0,1059.0,1162.5,897.0,960.0,1100.0,1033.0,1127.0,1090.0,1093.0,1231.0,888.0,1060.0,1051.5,1082.0,814.0,1080.0,996.0,951.0,1153.0,1052.0,1132.0,993.5,1122.0
22,1681776023,980.0,1039.0,1164.0,901.0,970.0,1095.0,1031.0,1138.5,1090.0,1086.5,1219.0,879.0,1058.0,1053.0,1088.0,815.0,1084.0,992.0,952.0,1160.0,1024.0,1139.0,987.0,1115.0
23,1681776024,981.0,1030.0,1167.0,905.0,968.5,1067.0,1029.0,1150.0,1091.5,1080.0,1242.0,896.0,1062.0,1057.0,1081.5,816.0,1087.0,988.5,953.0,1163.0,1027.0,1145.5,984.0,1108.0
24,1681776025,988.0,1021.0,1167.5,921.0,967.0,1071.0,1028.0,1156.0,1093.0,1074.0,1267.5,913.0,1062.5,1053.0,1075.0,791.0,1081.0,985.0,950.3333333333334,1175.0,1029.0,1152.0,983.0,1129.0
25,1681776026,995.0,1012.0,1168.0,920.5,973.0,1075.0,1027.0,1162.5,1099.0,1086.0,1293.0,909.5,1063.0,1049.0,1102.0,791.0,1083.0,981.0,947.6666666666666,1172.0,1031.0,1156.0,992.5,1130.0
26,1681776027,1002.0,1029.0,1167.0,920.0,959.5,1109.0,1036.0,1169.0,1107.0,1089.5,1294.0,906.0,996.0,1050.0,1123.5,791.0,1085.0,996.0,945.0,1176.0,1028.0,1157.0,1002.0,1128.0
27,1681776028,1009.0,1046.0,1188.0,914.0,946.0,1130.0,1033.0,1159.0,1117.0,1093.0,1306.0,907.0,1011.5,1073.0,1145.0,783.0,1087.0,1002.0,946.5,1180.0,1031.5,1160.5,1008.0,1126.0
28,1681776029,1016.0,1046.0,1180.0,932.0,975.0,1087.5,1030.0,1116.0,1127.0,1131.0,1318.0,919.5,1027.0,1074.5,1147.0,780.5,1089.0,1005.0,948.0,1172.0,1035.0,1164.0,1005.0,1141.0
29,1681776030,1012.0,1039.0,1172.0,928.0,972.0,1045.0,1027.0,1114.5,1146.0,1145.0,1302.0,932.0,996.0,1076.0,1159.0,778.0,1101.5,1008.0,934.3333333333334,1168.0,1039.0,1161.0,1002.0,1129.5
30,1681776031,1042.0,1032.0,1190.0,936.0,953.5,1027.0,1026.0,1113.0,1164.5,1159.0,1282.0,928.0,996.5,1077.0,1171.0,782.0,1114.0,1007.0,920.6666666666666,1171.0,1085.0,1156.0,992.0,1118.0
31,1681776032,1045.0,1036.0,1219.0,944.0,935.0,999.0,1026.3333333333333,1088.0,1183.0,1167.0,1267.0,959.0,997.0,1060.3333333333333,1225.0,799.0,1139.0,1005.0,907.0,1166.5,1059.5,1151.0,983.0,1132.0
32,1681776033,1048.0,1040.0,1228.0,962.0,988.0,971.0,1026.6666666666667,1095.0,1191.0,1144.0,1263.5,990.0,1009.0,1043.6666666666667,1221.0,796.0,1123.0,1004.0,890.0,1162.0,1034.0,1150.0,979.0,1129.0
33,1681776034,1054.0,1055.0,1237.0,967.5,1009.0,1033.0,1027.0,1090.0,1190.0,1139.5,1260.0,1012.0,1023.0,1027.0,1227.5,791.5,1126.0,1003.0,869.0,1161.5,1040.0,1144.0,975.0,1126.0
34,1681776035,1054.0,1110.0,1242.5,973.0,1013.0,1021.0,1023.0,1085.0,1191.0,1135.0,1301.0,1034.0,1033.5,1015.0,1234.0,787.0,1137.0,1010.0,870.0,1161.0,1048.0,1138.0,975.0,1128.0
35,1681776036,1035.0,1114.0,1248.0,963.0,1011.0,1061.0,1019.0,1095.0,1192.0,1133.0,1299.0,1117.0,1044.0,1020.5,1186.0,780.0,1137.5,1013.0,871.0,1160.5,1056.0,1164.0,978.0,1141.5
36,1681776037,1021.0,1118.0,1256.0,953.0,1016.0,1042.0,1018.0,1070.0,1197.0,1112.0,1297.0,1097.0,1062.0,1026.0,1152.0,784.0,1138.0,1015.0,876.0,1160.0,1051.0,1145.5,981.0,1155.0
37,1681776038,1007.0,1087.0,1254.5,953.0,1015.0,1041.9473684210527,1018.421052631579,1072.611111111111,1190.5,1113.5,1300.0,1077.0,1048.0,1015.0,1143.5,788.0,1144.0,1017.0,869.5,1160.0,1035.0,1127.0,975.0,1149.0
38,1681776039,1003.0,1081.0,1253.0,954.5,1014.0,1041.8947368421052,1018.8421052631579,1075.2222222222222,1184.0,1115.0,1302.0,1061.0,1048.5,990.0,1135.0,783.0,1140.5,1010.0,863.0,1162.0,1019.0,1152.0,973.5,1164.0
39,1681776040,994.0,1076.5,1257.0,956.0,1013.0,1041.842105263158,1019.2631578947369,1077.8333333333333,1170.0,1127.0,1304.0,1087.0,1049.0,996.5,1129.0,784.5,1137.0,1013.5,841.0,1164.0,1058.0,1158.0,972.0,1165.5
40,1681776041,994.0,1072.0,1252.0,962.0,1012.0,1041.7894736842106,1019.6842105263158,1080.4444444444443,1165.0,1136.0,1333.0,1113.0,1041.0,1003.0,1120.0,786.0,1125.0,1017.0,838.5,1149.0,1069.0,1164.0,985.0,1167.0
41,1681776042,994.0,1084.0,1247.0,965.5,1011.0,1041.7368421052631,1020.1052631578947,1083.0555555555557,1177.0,1145.0,1365.0,1096.5,1039.0,1007.3333333333334,1111.0,782.0,1124.0,1020.0,836.0,1147.0,1080.0,1154.0,986.0,1167.0
42,1681776043,1008.0,1098.5,1223.0,969.0,1010.0,1041.6842105263158,1020.5263157894736,1085.6666666666667,1182.5,1146.0,1388.5,1080.0,1035.0,1011.6666666666666,1101.0,774.0,1123.0,1016.5,834.0,1146.0,1070.0,1132.0,987.0,1143.0
43,1681776044,1012.0,1113.0,1218.0,980.0,1009.0,1041.6315789473683,1020.9473684210526,1088.2777777777778,1188.0,1140.0,1412.0,1072.5,1031.0,1016.0,1096.0,776.5,1123.0,1013.0,829.5,1145.0,1064.0,1161.5,976.0,1119.0
44,1681776045,1016.0,1104.0,1199.5,992.5,1008.0,1041.578947368421,1021.3684210526316,1090.888888888889,1195.0,1126.0,1428.0,1065.0,1000.0,1027.0,1094.5,779.0,1131.0,1032.0,825.0,1144.5,1058.0,1191.0,977.0,1196.0
45,1681776046,1034.0,1094.5,1181.0,1005.0,1007.0,1041.5263157894738,1021.7894736842105,1093.5,1196.0,1112.0,1409.0,1074.0,997.5,1027.5,1093.0,736.0,1139.0,1043.0,840.0,1144.0,1056.0,1193.0,978.0,1196.0
46,1681776047,1028.0,1085.0,1175.0,1007.0,1006.0,1041.4736842105262,1022.2105263157895,1096.111111111111,1197.0,1097.0,1390.0,1074.5,995.0,1028.0,1097.0,771.0,1151.0,1054.0,840.0,1146.0,1056.5,1182.0,1018.0,1196.0
47,1681776048,1022.0,1088.0,1186.5,1012.0,1005.0,1041.421052631579,1022.6315789473684,1098.7222222222222,1184.0,1109.0,1305.0,1075.0,1010.0,1048.0,1097.0,806.0,1144.0,1035.0,840.0,1150.0,1057.0,1171.0,999.5,1214.0
48,1681776049,1010.0,1084.5,1198.0,1013.0,1004.0,1041.3684210526317,1023.0526315789474,1101.3333333333333,1184.0,1121.0,1273.0,1032.0,990.0,1035.0,1097.0,831.0,1137.0,1026.0,838.0,1147.5,1040.0,1169.0,981.0,1216.5
49,1681776050,987.5,1081.0,1181.0,1014.0,1003.0,1041.3157894736842,1023.4736842105264,1103.9444444444443,1184.0,1089.0,1295.5,1031.5,970.0,1029.5,1088.0,828.0,1130.0,1017.0,840.0,1145.0,1026.0,1161.5,991.0,1219.0
50,1681776051,965.0,1088.0,1187.0,1037.0,1002.0,1041.2631578947369,1023.8947368421053,1106.5555555555557,1173.0,1072.0,1318.0,1031.0,1005.0,1024.0,1086.0,825.0,1129.0,1009.0,842.0,1143.0,1026.5,1154.0,997.0,1289.0
51,1681776052,937.0,1098.0,1193.0,1044.5,1001.0,1041.2105263157894,1024.3157894736842,1109.1666666666667,1179.5,1055.0,1335.0,1048.0,1005.5,1003.0,1084.0,834.0,1128.0,1023.0,855.0,1147.0,1027.0,1139.0,997.0,1253.0
52,1681776053,936.0,1081.5,1142.0,1052.0,1000.0,1041.157894736842,1024.7368421052631,1111.7777777777778,1186.0,1044.0,1331.0,1089.0,1006.0,1003.5,1094.0,911.0,1156.0,1042.0,872.5,1151.0,1034.0,1127.5,997.0,1217.0
53,1681776054,933.0,1065.0,1137.0,1064.0,999.0,1041.1052631578948,1025.157894736842,1114.388888888889,1205.0,1044.0,1327.0,1110.0,1005.0,1004.0,1093.0,941.0,1158.5,1061.0,890.0,1172.0,1032.5,1116.0,998.0,1191.0
54,1681776055,930.0,1026.0,1132.0,1057.5,998.0,1041.0526315789473,1025.578947368421,1117.0,1204.0,1050.5,1342.0,1131.0,1006.5,1007.0,1092.0,971.0,1161.0,1063.0,898.0,1189.5,1031.0,1108.0,999.0,1191.5
55,1681776056,930.5,1016.5,1125.0,1051.0,997.0,1041.0,1026.0,997.0,1203.0,1057.0,1351.5,1249.0,1008.0,1006.5,1075.0,971.0,1185.0,1065.0,899.0,1207.0,1049.0,1078.5,1000.0,1192.0
56,1681776057,931.0,1007.0,1123.0,1036.0,993.8333333333334,1041.4,1028.2,1017.0,1166.0,1071.0,1361.0,1230.5,1007.0,1006.0,1080.5,965.5,1200.0,1064.0,900.0,1215.0,1048.0,1049.0,990.0,1174.0
57,1681776058,933.0,1005.0,1121.0,1000.5,990.6666666666666,1041.8,1030.4,1037.0,1141.0,1080.0,1342.0,1212.0,1003.5,1041.0,1086.0,960.0,1215.0,1064.0,905.0,1219.0,1047.0,1111.0,987.5,1173.5
58,1681776059,942.0,998.5,1128.0,965.0,987.5,1042.2,1032.6,1057.0,1116.0,1089.0,1353.5,1181.0,1000.0,1040.0,1084.0,920.0,1224.0,1064.0,907.5,1223.0,1052.0,1111.0,985.0,1173.0
59,1681776060,944.0,992.0,1129.0,945.0,984.3333333333334,1042.6,1034.8,1077.0,1116.0,1117.0,1365.0,1173.5,975.0,1039.0,1083.0,907.5,1221.0,1057.0,910.0,1212.0,1049.0,1111.0,985.0,1194.0
60,1681776061,946.0,1002.0,1130.0,941.5,981.1666666666666,1043.0,1037.0,1097.0,1169.0,1126.0,1374.0,1166.0,978.5,1044.0,1079.0,895.0,1218.0,1033.0,881.0,1214.5,1046.0,1129.0,999.0,1170.0
61,1681776062,951.0,991.5,1138.0,938.0,978.0,1042.0,1044.0,1117.0,1187.0,1124.5,1394.0,1158.5,982.0,1055.5,1075.0,885.0,1234.0,1036.0,881.0,1217.0,1057.0,1141.0,1013.0,1158.0
62,1681776063,962.5,981.0,1143.0,929.0,970.0,1033.0,1057.0,1121.0,1167.5,1123.0,1390.0,1151.0,982.0,1067.0,1077.0,872.5,1214.5,1039.0,878.5,1234.0,1059.5,1138.5,1035.0,1146.0
63,1681776064,974.0,1002.0,1148.0,933.5,932.0,1029.0,1072.0,1128.0,1148.0,1048.0,1402.0,1171.0,980.0,1064.0,1079.0,860.0,1195.0,1026.0,876.0,1236.0,1062.0,1136.0,1025.0,1178.0
64,1681776065,977.0,1004.5,1167.0,938.0,937.0,1020.0,1089.0,1129.0,1137.0,1045.0,1414.0,1181.0,979.5,1045.5,1081.0,850.0,1151.0,1015.0,901.0,1238.0,1064.0,1126.0,1015.0,1166.5
65,1681776066,977.5,1007.0,1190.0,941.0,942.0,1050.0,1095.0,1137.0,1143.5,1052.0,1342.0,1191.0,979.0,1027.0,1088.0,842.0,1138.0,1004.0,908.5,1238.0,1062.0,1126.5,999.0,1155.0
66,1681776067,978.0,1004.0,1191.5,957.0,936.0,1050.0,1092.0,1134.0,1150.0,1059.0,1330.0,1264.0,964.0,1003.0,1091.0,834.0,1135.5,981.0,916.0,1236.0,1060.0,1127.0,1001.0,1138.0
67,1681776068,975.0,1004.0,1193.0,956.5,945.0,1039.0,1085.0,1097.0,1165.0,1067.0,1318.0,1309.0,955.0,1015.0,1094.0,834.0,1133.0,982.5,933.0,1239.0,1059.0,1121.0,1003.0,1140.0
68,1681776069,985.0,1004.0,1192.0,956.0,948.5,1042.0,1097.0,1160.0,1125.0,1079.0,1317.0,1354.0,946.0,1003.0,1110.0,800.0,1141.0,984.0,929.5,1242.0,1037.0,1120.5,999.0,1142.0
69,1681776070,995.0,999.0,1195.0,946.0,952.0,1038.3333333333333,1109.0,1173.0,1114.5,1091.0,1301.0,1433.0,942.0,991.0,1115.5,766.0,1143.0,975.0,926.0,1219.0,1047.0,1120.0,1000.0,1146.0
70,1681776071,1019.0,1016.0,1198.0,941.0,952.0,1034.6666666666667,1099.0,1169.0,1104.0,1112.0,1301.0,1466.0,940.5,1024.0,1121.0,824.0,1145.0,973.0,917.0,1206.5,1057.0,1118.0,1001.0,1159.5
71,1681776072,1005.0,1019.0,1234.0,936.0,956.0,1031.0,1082.0,1160.0,1115.0,1126.5,1301.0,1455.5,939.0,1026.0,1118.0,822.0,1147.0,972.5,905.0,1194.0,1043.0,1125.0,1006.0,1173.0
72,1681776073,999.5,1022.0,1262.0,945.0,980.0,1051.0,1083.0,1151.0,1108.0,1141.0,1285.0,1445.0,952.0,1028.0,1128.0,819.5,1145.0,972.0,899.0,1159.0,1051.5,1132.0,1013.0,1174.0
73,1681776074,994.0,1039.0,1264.0,945.5,1004.0,1028.0,1073.3333333333333,1132.0,1101.0,1152.0,1281.5,1392.0,947.0,1028.0,1140.5,817.0,1141.5,968.0,893.0,1147.0,1060.0,1180.0,1015.0,1173.0
74,1681776075,993.0,1045.5,1266.0,946.0,1008.0,1020.0,1063.6666666666667,1125.0,1093.0,1153.0,1278.0,1405.0,942.0,1029.0,1153.0,815.0,1138.0,964.5,876.0,1135.0,1068.0,1158.5,1017.0,1172.0
75,1681776076,995.0,1052.0,1267.0,968.0,998.0,1012.0,1054.0,1124.0,1098.5,1148.5,1292.0,1418.0,936.0,1030.0,1153.0,809.5,1135.0,961.0,873.0,1135.0,1075.5,1137.0,1027.0,1205.0
76,1681776077,997.0,1061.0,1270.0,969.0,977.0,1009.0,1057.0,1123.0,1104.0,1144.0,1315.0,1423.0,940.0,1028.0,1172.5,804.0,1126.5,966.0,870.0,1135.0,1083.0,1156.0,1048.0,1200.5
77,1681776078,987.0,1065.0,1273.0,970.0,956.0,1010.5,1062.5,1095.0,1127.0,1123.5,1338.0,1370.0,944.0,1033.5,1192.0,808.0,1118.0,968.5,867.0,1135.0,1081.0,1159.5,1069.0,1196.0
78,1681776079,988.5,1069.0,1276.0,995.0,991.0,1012.0,1068.0,1108.0,1139.5,1103.0,1331.0,1317.0,939.0,1039.0,1181.0,820.0,1135.0,971.0,866.0,1135.0,1083.0,1163.0,1065.0,1191.0
79,1681776080,990.0,1086.0,1269.0,999.5,961.0,1004.0,1059.0,1121.0,1152.0,1093.0,1343.0,1226.0,970.0,1040.0,1164.0,832.0,1135.0,972.0,865.0,1136.0,1085.0,1169.0,1059.0,1194.0
80,1681776081,997.0,1088.5,1262.0,1004.0,961.5,1012.0,1050.0,1104.0,1178.0,1089.0,1355.0,1205.0,956.5,1041.0,1147.0,844.0,1135.0,979.0,863.0,1139.0,1107.0,1182.5,1053.0,1197.0
81,1681776082,1000.0,1091.0,1260.0,1008.0,962.0,1011.5,1047.5,1107.0,1167.0,1085.0,1385.0,1184.0,943.0,1043.5,1155.0,850.5,1147.0,987.0,865.0,1142.0,1106.5,1196.0,1046.5,1135.0
82,1681776083,1003.0,1090.0,1261.5,1004.0,961.0,1011.0,1045.0,1104.0,1156.0,1084.0,1390.0,1132.0,952.0,1046.0,1163.0,857.0,1154.0,995.0,867.0,1150.0,1106.0,1197.0,1040.0,1148.5
83,1681776084,1019.0,1088.5,1263.0,1001.0,968.0,1026.0,1039.0,1101.0,1145.0,1091.0,1392.0,1147.5,956.5,1028.0,1171.0,897.0,1161.0,996.0,864.0,1154.5,1109.0,1195.5,1040.0,1162.0
84,1681776085,994.5,1087.0,1266.0,998.0,975.0,1038.6666666666667,1038.0,1094.0,1146.0,1080.0,1394.0,1163.0,961.0,1030.0,1173.0,913.0,1162.0,1002.0,851.0,1159.0,1114.0,1194.0,1072.0,1172.0
85,1681776086,970.0,1086.0,918.0,969.0,952.0,1051.3333333333333,1037.0,1155.0,1159.0,1069.0,1381.0,1183.6666666666667,970.0,1032.0,1170.5,928.0,1167.0,1008.0,855.0,1151.0,1119.0,1182.0,1104.0,1181.5
86,1681776087,1042.0,1092.0,1007.0,940.0,949.0,1064.0,1052.0,1164.0,1149.0,1047.0,1372.0,1204.3333333333333,971.0,1046.0,1168.0,943.0,1172.0,1010.0,859.0,1151.0,1121.0,1176.5,1051.0,1191.0
87,1681776088,1030.0,1091.0,1096.0,946.5,954.5,1060.0,1044.0,1173.0,1134.5,1046.0,1374.0,1225.0,972.0,1024.5,1143.0,987.0,1177.0,1013.5,867.0,1151.0,1113.0,1171.0,1048.0,1202.0
88,1681776089,1024.5,1090.0,1121.0,953.0,960.0,1059.0,1044.0,1173.0,1120.0,1057.0,1370.0,1214.0,979.0,1003.0,1147.0,1005.5,1180.5,1017.0,867.0,1161.0,1105.0,1205.0,1044.0,1141.0
89,1681776090,1019.0,1100.0,1125.5,957.0,975.0,1058.0,1044.0,1172.5,1111.0,1058.0,1366.0,1203.0,976.0,1001.0,1152.5,1024.0,1184.0,1013.0,867.0,1166.5,1097.0,1219.0,1040.0,1174.5
90,1681776091,1021.0,1092.5,1130.0,952.0,959.0,1074.0,1044.0,1172.0,1092.0,1059.0,1366.0,1210.0,973.0,996.0,1158.0,1023.0,1191.0,1017.5,873.0,1172.0,1106.0,1223.0,1037.0,1208.0
91,1681776092,1029.0,1085.0,1137.0,947.0,970.0,1076.0,1019.0,1194.0,1073.0,1050.0,1374.5,1226.5,988.0,991.0,1163.0,1017.0,1193.0,1022.0,875.5,1178.0,1105.5,1227.0,1044.0,1169.0
92,1681776093,1037.0,1067.0,1137.5,950.0,970.0,1090.0,1006.0,1185.0,1071.0,1061.0,1383.0,1243.0,996.0,994.0,1168.0,1011.0,1193.5,1037.0,878.0,1186.5,1105.0,1240.0,1047.5,1143.0
93,1681776094,1028.0,1046.0,1138.0,951.0,956.0,1101.0,1010.0,1160.0,1076.5,1072.0,1406.0,1263.0,1004.0,996.0,1173.0,983.0,1194.0,1043.0,867.0,1195.0,1110.0,1242.5,1051.0,1135.5
94,1681776095,1019.0,1038.5,1140.0,952.0,950.0,1121.0,1031.0,1137.0,1082.0,1063.0,1400.5,1258.0,1017.0,998.0,1172.0,945.0,1202.0,1049.0,868.5,1202.0,1098.0,1245.0,1055.0,1128.0
95,1681776096,1013.5,1031.0,1159.0,960.0,944.0,1131.0,1029.6666666666667,1114.0,1087.0,1064.3333333333333,1395.0,1250.0,995.0,1021.0,1178.5,907.0,1191.0,1050.0,870.0,1208.0,1086.0,1223.0,1055.0,1122.0
96,1681776097,1008.0,1034.0,1173.0,959.0,933.0,1113.0,1028.3333333333333,1113.0,1105.0,1065.6666666666667,1394.0,1242.0,987.5,1012.5,1185.0,879.0,1180.0,1049.0,878.0,1197.0,1097.0,1227.0,1055.0,1119.5
97,1681776098,979.0,1033.5,1187.0,958.0,939.0,1121.5,1027.0,1091.0,1110.5,1067.0,1399.0,1196.0,980.0,1004.0,1175.0,869.5,1182.0,1056.5,881.0,1186.0,1092.0,1226.5,1064.0,1117.0
98,1681776099,965.5,1033.0,1204.0,969.0,929.0,1130.0,1008.0,1091.0,1116.0,1090.0,1399.0,1198.0,995.0,1028.0,1161.0,860.0,1185.5,1064.0,884.0,1166.0,1096.5,1226.0,1064.0,1140.0
99,1681776100,952.0,1033.0,1211.0,965.0,923.5,1159.0,1017.5,1091.0,1136.0,1113.0,1399.0,1199.5,1002.0,1027.0,1147.0,856.0,1189.0,1079.0,882.0,1176.0,1101.0,1130.0,1060.5,1138.5
100,1681776101,949.0,1018.0,1218.0,972.5,918.0,1154.0,1027.0,1122.0,1143.5,1117.0,1411.0,1201.0,1009.0,1035.5,1047.0,864.0,1192.0,1084.5,879.0,1186.0,1122.0,1123.0,1057.0,1137.0
101,1681776102,955.5,1019.0,1228.0,980.0,934.0,1149.0,1027.0,1134.0,1151.0,1121.0,1413.5,1164.0,1017.0,1044.0,1059.0,862.5,1192.5,1090.0,881.3333333333334,1197.0,1128.5,1116.0,1063.0,1138.0
102,1681776103,962.0,1020.0,1234.5,989.0,934.0,1152.0,1031.0,1146.0,1151.0,1126.0,1416.0,1149.5,993.5,1019.0,1071.0,861.0,1193.0,1098.0,883.6666666666666,1177.0,1135.0,1090.0,1068.0,1152.0
103,1681776104,992.0,1008.0,1241.0,993.5,934.0,1151.0,1030.0,1166.0,1154.0,1119.0,1401.0,1135.0,970.0,999.5,1095.0,855.0,1198.0,1084.0,886.0,1170.5,1143.0,1092.0,1073.0,1146.0
104,1681776105,1019.0,1007.5,1245.0,998.0,932.0,1150.0,1029.0,1156.5,1153.0,1112.0,1376.0,1113.5,1046.0,980.0,1087.5,849.0,1202.0,1068.0,887.5,1164.0,1147.0,1096.0,1080.0,1140.0
105,1681776106,1031.0,1007.0,1232.0,1001.0,935.5,1100.0,1019.0,1147.0,1156.0,1132.0,1374.0,1092.0,1038.5,986.0,1080.0,843.0,1201.0,1052.0,889.0,1147.0,1151.0,1100.0,1089.0,1129.0
106,1681776107,1043.0,1006.0,1231.6666666666667,1015.0,939.0,1086.0,1017.5,1151.0,1159.0,1113.0,1372.0,1080.5,1031.0,992.0,1082.0,838.0,1200.0,1009.0,886.5,1150.0,1098.0,1119.0,1098.0,1124.0
107,1681776108,1025.0,991.0,1231.3333333333333,1022.0,936.0,1085.5,1016.0,1155.0,1172.0,1120.0,1402.0,1069.0,1038.0,998.0,1043.0,836.0,1207.0,1013.0,884.0,1155.5,1148.0,1127.5,1107.0,1119.0
108,1681776109,1007.0,986.0,1231.0,995.5,944.0,1085.0,1015.0,1168.0,1178.5,1127.0,1410.0,1061.0,1041.0,988.0,1053.5,834.0,1215.0,1004.5,886.0,1161.0,1147.5,1136.0,1095.0,1122.0
109,1681776110,993.0,986.5,1211.0,969.0,940.5,1061.0,1019.0,1181.0,1185.0,1128.0,1408.0,1057.5,1034.5,987.5,1064.0,830.0,1215.0,996.0,888.5,1177.0,1147.0,1138.0,1073.5,1127.0
110,1681776111,999.5,987.0,1257.0,965.0,937.0,1071.5,1023.0,1172.0,1197.0,1120.0,1406.0,1054.0,1028.0,987.0,1137.0,833.5,1215.0,984.0,891.0,1168.0,1148.0,1144.0,1052.0,1132.0
111,1681776112,1006.0,999.0,1258.5,963.0,931.0,1082.0,1020.3333333333334,1086.0,1194.0,1112.0,1395.0,1063.0,1023.0,985.0,1118.5,837.0,1214.0,979.5,901.0,1159.0,1143.5,1150.0,1036.0,1117.0
112,1681776113,1020.0,999.5,1260.0,961.0,900.0,1064.0,1017.6666666666666,1116.0,1180.5,1104.0,1371.0,1057.0,1018.0,994.0,1100.0,847.0,1213.0,975.0,911.0,1135.0,1139.0,1139.0,1039.5,1121.0
113,1681776114,1015.3333333333334,1000.0,1268.0,946.0,930.0,1065.5,1015.0,1108.5,1167.0,1074.0,1343.5,1109.0,1001.0,1003.0,1082.0,851.0,1213.0,986.0,921.0,1107.0,1085.0,1145.0,1043.0,1126.0
114,1681776115,1010.6666666666666,989.0,1262.0,935.0,925.5,1067.0,1010.0,1101.0,1154.0,1063.75,1316.0,1112.0,973.0,992.0,1083.0,855.0,1213.0,999.0,901.5,1113.0,1105.0,1151.0,975.0,1131.0
115,1681776116,1006.0,980.0,1266.5,928.0,921.0,1056.0,1004.0,1086.0,1156.0,1053.5,1316.0,1118.0,971.5,990.0,1084.0,918.0,1214.0,1004.0,882.0,1116.0,1125.0,1150.0,1014.0,1139.0
116,1681776117,973.0,980.0,1271.0,939.0,917.0,1071.0,998.0,1095.0,1157.0,1043.25,1318.0,1107.5,970.0,996.0,1095.0,889.5,1207.0,1004.0,878.5,1119.0,1113.0,1157.0,1053.0,1178.0
117,1681776118,963.5,982.0,1276.0,950.0,931.0,1086.0,1010.0,1134.0,1165.0,1033.0,1332.0,1097.0,979.0,1002.0,1082.0,861.0,1216.0,1004.5,875.0,1135.0,1095.0,1155.0,1069.5,1217.0
118,1681776119,954.0,984.0,1273.5,973.0,933.0,1094.0,1024.0,1087.0,1173.0,1023.0,1335.0,1097.0,961.0,993.0,1069.0,855.0,1218.0,1005.0,874.3333333333334,1160.0,1077.0,1154.0,1086.0,1190.5
119,1681776120,943.0,980.0,1271.0,983.0,935.8421052631579,1110.0,1024.0,1084.9473684210527,1171.0,1034.0,1338.0,1090.0,943.0,998.0,1079.0,864.0,1220.0,1017.0,873.6666666666666,1181.0,1073.0,1156.0,1077.0,1164.0
120,1681776121,939.0,980.0,1287.0,993.0,938.6842105263158,1113.0833333333333,1024.9583333333333,1082.8947368421052,1169.0,1047.6666666666667,1342.0,1083.0,975.0,1003.0,1082.0,8628.0,1227.0,1031.0,873.0,1177.5,1074.5,1158.0,1056.5,1166.0
121,1681776122,941.5,980.0,1291.0,993.0,941.5263157894736,1116.1666666666667,1025.9166666666667,1080.842105263158,1150.0,1061.3333333333333,1365.0,1089.0,972.5,1003.0,1089.5,16392.0,1239.0,1034.0,890.0,1174.0,1076.0,1151.0,1036.0,1172.0
122,1681776123,944.0,980.0,1294.0,993.0,944.3684210526316,1119.25,1026.875,1078.7894736842106,1147.3333333333333,1075.0,1377.0,1113.0,970.0,1000.5,1097.0,870.0,1220.0,1037.0,894.0,1164.0,1083.0,1151.5,1077.0,1178.0
123,1681776124,941.0,980.0,1297.0,1001.5,947.2105263157895,1122.3333333333333,1027.8333333333333,1076.7368421052631,1144.6666666666667,1080.0,1249.5,1122.0,957.0,998.0,1173.0,888.5,1196.0,1024.0,898.0,1158.0,1083.5,1152.0,1068.0,1179.0
124,1681776125,946.5,981.0,1289.0,1010.0,950.0526315789474,1125.4166666666667,1028.7916666666667,1074.6842105263158,1142.0,1065.5,1122.0,1125.0,965.0,1000.5,1121.0,907.0,1172.0,1035.0,909.0,1159.0,1084.0,1131.0,1066.0,1099.0
125,1681776126,952.0,982.0,1293.0,1031.0,952.8947368421053,1128.5,1029.75,1072.6315789473683,1130.0,1051.0,1398.0,1128.0,1003.0,1003.0,1093.5,962.0,1148.0,1033.0,909.5,1160.0,1109.0,1109.0,1064.0,1141.0
126,1681776127,954.0,979.0,1297.0,1037.0,955.7368421052631,1131.5833333333333,1030.7083333333333,1070.578947368421,1118.0,1045.0,1402.5,1121.0,983.5,995.0,1066.0,965.0,1144.5,1031.0,910.0,1155.0,1095.0,1117.5,1062.0,1183.0
127,1681776128,944.0,982.5,1284.0,1043.0,958.578947368421,1134.6666666666667,1031.6666666666667,1068.5263157894738,1108.0,1018.0,1407.0,1068.0,964.0,993.0,1066.0,973.0,1141.0,1020.0,916.0,1147.0,1096.0,1126.0,1061.0,1175.0
128,1681776129,943.0,986.0,1263.0,1019.0,961.421052631579,1137.75,1032.625,1066.4736842105262,1112.5,1010.0,1421.0,1015.0,981.0,991.0,1061.0,981.0,1143.0,1011.0,923.0,1139.0,1097.0,1130.0,1060.0,1171.5
129,1681776130,942.0,986.0,1251.5,1014.0,964.2631578947369,1140.8333333333333,1033.5833333333333,1064.421052631579,1117.0,1002.0,1423.0,962.0,984.0,986.0,1056.0,971.0,1142.0,1002.0,927.5,1134.0,1105.0,1134.0,1064.0,1168.0
130,1681776131,939.0,987.5,1240.0,1009.0,967.1052631578948,1143.9166666666667,1034.5416666666667,1062.3684210526317,1115.0,992.0,1425.0,952.0,987.0,989.0,1093.0,937.0,1142.0,1000.0,932.0,1129.0,1106.0,1138.0,1067.0,1167.0
131,1681776132,940.0,989.0,1219.0,971.0,969.9473684210526,1147.0,1035.5,1060.3157894736842,1116.0,995.0,1393.0,942.0,971.0,992.0,1055.0,911.0,1142.0,1001.0,936.0,1121.5,1107.0,1134.0,1069.0,1174.0
132,1681776133,941.0,988.0,1219.0,980.0,972.7894736842105,1150.0833333333333,1036.4583333333333,1058.2631578947369,1127.5,998.0,1387.0,923.0,975.0,980.0,1049.0,885.0,1141.0,1002.0,942.5,1114.0,1109.0,1134.0,1071.0,1191.5
133,1681776134,934.0,982.0,1219.0,982.5,975.6315789473684,1153.1666666666667,1037.4166666666667,1056.2105263157894,1139.0,998.0,1386.0,923.0,971.5,991.0,1043.0,828.0,1144.5,993.0,949.0,1127.0,1099.0,1137.0,1077.0,1209.0
134,1681776135,938.0,981.5,1205.0,985.0,978.4736842105264,1156.25,1038.375,1054.157894736842,1133.0,998.0,1396.0,882.0,968.0,996.5,1034.0,824.5,1148.0,1006.0,934.0,1129.5,1089.0,1140.0,1072.5,1221.0
135,1681776136,938.0,981.0,1193.0,989.0,981.3157894736842,1159.3333333333333,1039.3333333333333,1052.1052631578948,1104.0,998.0,1406.0,889.5,965.0,1002.0,1036.5,821.0,1158.0,1001.0,920.0,1132.0,1091.0,1147.0,1068.0,1229.0
136,1681776137,938.0,992.0,1190.5,992.0,984.1578947368421,1162.4166666666667,1040.2916666666667,1050.0526315789473,1101.5,998.0,1421.0,897.0,954.0,1014.0,1039.0,819.0,1157.0,996.0,906.0,1145.0,1083.0,1147.5,1058.0,1237.0
137,1681776138,937.0,989.0,1188.0,995.0,987.0,1165.5,1041.25,1048.0,1099.0,997.0,1406.0,907.0,943.0,996.0,1032.5,795.0,1156.0,1000.0,901.0,1152.5,1082.0,1148.0,1055.0,1254.0
138,1681776139,940.5,986.0,1177.0,1000.0,988.0,1168.5833333333333,1042.2083333333333,1048.0,1090.0,1008.0,1391.0,967.0,953.0,1008.0,1026.0,801.0,1154.0,998.5,889.0,1160.0,1081.0,1140.0,1066.5,1264.0
139,1681776140,944.0,986.0,1180.5,1013.0,989.0,1171.6666666666667,1043.1666666666667,1048.0,1088.5,1037.0,1217.0,1027.0,958.0,1020.0,1039.0,803.0,1155.0,997.0,884.0,1171.0,1083.0,1146.5,1078.0,1274.0
140,1681776141,939.0,982.0,1184.0,1002.5,990.0,1174.75,1044.125,1048.0,1087.0,1066.0,1219.0,1040.0,958.0,1044.0,1038.5,805.0,1155.0,988.0,879.0,1178.5,1080.5,1153.0,1068.0,1252.0
141,1681776142,942.0,985.0,1180.0,992.0,991.0,1177.8333333333333,1045.0833333333333,1048.0,1089.0,1075.0,1221.0,1035.5,958.0,1046.0,1038.0,804.0,1155.0,992.0,894.0,1186.0,1078.0,1157.0,1069.0,1217.0
142,1681776143,945.5,988.0,1191.5,993.0,992.0,1180.9166666666667,1046.0416666666667,1048.0,1073.0,1073.0,1228.0,1031.0,959.0,1048.0,1041.0,804.5,1163.0,996.0,903.0,1201.0,1119.0,1153.0,1070.0,1208.0
143,1681776144,949.0,976.0,1203.0,993.0,993.0,1184.0,1047.0,1048.0,1067.0,1071.0,1236.0,1009.0,986.0,1061.0,1043.0,805.0,1161.5,1003.0,908.5,1216.0,1088.0,1159.5,1069.0,1199.0
144,1681776145,949.0,984.0,1211.0,993.0,977.0,1128.0,1038.0,1058.0,1061.0,1082.0,1244.0,1001.0,1013.0,1050.0,1045.0,731.0,1160.0,1009.0,914.0,1222.5,1057.0,1166.0,1066.0,1213.0
145,1681776146,954.75,992.0,1224.0,1016.0,987.0,1100.0,1023.0,1055.0,1052.0,1084.0,1251.0,993.0,1011.0,1039.0,1052.0,767.5,1160.0,1011.5,915.5,1229.0,1064.0,1169.0,1063.0,1216.0
146,1681776147,960.5,989.0,1232.0,950.0,1002.0,1090.0,1020.0,1062.0,1052.0,1086.0,1253.0,1005.0,1022.5,1068.0,1059.0,804.0,1177.5,1014.0,917.0,1234.0,1075.0,1155.0,1064.0,1219.0
147,1681776148,966.25,989.0,1239.5,921.0,1009.0,1113.0,1023.0,1047.0,1052.0,1090.0,1255.0,1013.5,1034.0,1074.0,1061.0,821.0,1195.0,1027.0,929.5,1197.0,1075.0,1141.0,1063.0,1249.0
148,1681776149,972.0,998.0,1247.0,909.0,1025.0,1110.0,1027.0,1054.0,1057.0,1094.0,1278.0,1022.0,993.0,1080.0,1061.0,825.5,1194.0,1031.0,942.0,1197.0,1075.0,1166.0,1062.0,1254.0
149,1681776150,976.0,995.0,1266.0,897.0,1005.0,1098.0,1027.0,1047.0,1061.0,1098.0,1273.0,1042.0,1056.0,1052.0,1054.0,830.0,1202.0,1018.0,937.6666666666666,1197.0,1126.0,1159.0,1060.0,1259.0
150,1681776151,974.0,992.0,1271.0,890.0,996.0,1111.0,1032.0,1062.0,1065.0,1088.0,1274.0,1030.5,1026.0,1038.0,1047.0,931.0,1210.0,1015.5,933.3333333333334,1212.0,1104.5,1152.0,999.0,1288.0
151,1681776152,972.0,998.0,1277.5,887.0,956.0,1113.0,1039.0,1087.0,1070.0,1077.0,1275.0,1019.0,996.0,1024.0,1061.0,973.5,1214.5,1013.0,929.0,1229.0,1083.0,1150.0,1025.0,1299.5
152,1681776153,970.0,1019.5,1284.0,908.0,926.0,1112.0,1019.0,1071.0,1078.0,1066.0,1268.0,1032.0,988.0,1024.0,1061.0,1016.0,1219.0,1021.0,923.5,1240.0,1068.0,1146.5,1051.0,1311.0
153,1681776154,970.5,1041.0,1270.0,929.0,915.0,1114.0,1037.0,1069.0,1086.0,1037.0,1267.5,1040.5,979.0,1019.0,1061.0,1005.0,1215.0,1021.0,918.0,1239.0,1068.5,1143.0,1114.0,1279.0
154,1681776155,971.0,1046.0,1274.5,971.0,899.0,1108.0,1035.0,1067.0,1090.0,1033.5,1267.0,1049.0,970.0,1014.0,1074.0,1026.5,1219.0,1026.5,915.5,1238.0,1069.0,1118.0,1177.5,1241.0
155,1681776156,967.0,1042.0,1279.0,970.0,891.0,1092.0,1022.5,1093.0,1091.5,1030.0,1269.0,1077.0,975.0,1028.0,1083.5,1048.0,1219.0,1032.0,913.0,1239.0,1053.0,1140.0,1241.0,1238.5
156,1681776157,981.0,1039.0,1271.0,969.0,908.0,1069.0,1010.0,1085.0,1093.0,1038.0,1272.5,1082.0,969.0,1041.0,1093.0,999.5,1219.0,1034.0,923.0,1235.0,1055.842105263158,1140.76,1232.2105263157894,1236.0
157,1681776158,985.0,1036.0,1269.0,959.0,902.0,1046.0,1011.0,1084.5,1104.0,1045.0,1276.0,1099.0,961.5,1047.5,1113.0,951.0,1215.0,1036.5,918.0,1231.0,1058.6842105263158,1141.52,1223.421052631579,1228.3333333333333
158,1681776159,989.0,1046.0,1267.0,961.5,899.5,1099.0,1015.0,1084.0,1103.5,1057.5,1268.0,1116.0,954.0,1054.0,1122.0,968.5,1215.5,1039.0,912.0,1186.0,1061.5263157894738,1142.28,1214.6315789473683,1220.6666666666667
159,1681776160,1007.0,1045.0,1272.0,964.0,897.0,1090.0,1019.0,1084.0,1103.0,1070.0,1264.0,1132.0,952.0,1039.0,1116.0,986.0,1216.0,1033.0,906.0,1160.5,1064.3684210526317,1143.04,1205.842105263158,1213.0
160,1681776161,1009.5,1044.0,1283.0,977.0,892.0,1085.5,1019.0,1084.0,1101.0,1057.0,1260.0,1160.5,956.5,1033.0,1110.0,968.0,1205.0,1034.0,892.0,1135.0,1067.2105263157894,1143.8,1197.0526315789473,1205.3333333333333
161,1681776162,1012.0,1031.0,1290.5,949.0,904.0,1081.0,1024.0,1090.5,1093.0,1055.0,1276.0,1189.0,961.0,1049.0,1097.0,900.0,1206.0,1035.0,889.0,1130.0,1070.0526315789473,1144.56,1188.2631578947369,1197.6666666666667
162,1681776163,1035.0,1036.5,1298.0,934.0,895.0,1088.0,1041.0,1097.0,1090.0,1053.0,1274.0,1201.0,964.0,1059.0,1084.0,843.0,1208.0,1029.0,886.0,1134.0,1072.8947368421052,1145.32,1179.4736842105262,1190.0
163,1681776164,1042.0,1042.0,1331.0,919.0,891.0,1097.0,1058.0,1107.0,1087.0,1048.0,1282.5,1203.0,975.0,1069.0,1077.0,835.5,1210.0,1023.0,878.0,1134.5,1075.7368421052631,1146.08,1170.6842105263158,1182.3333333333333
164,1681776165,1049.0,1057.0,1329.5,902.0,934.5,1092.0,1075.0,1119.5,1101.0,1043.5,1291.0,1205.0,972.5,1051.0,1070.0,828.0,1215.0,1017.0,876.5,1135.0,1078.578947368421,1146.84,1161.8947368421052,1174.6666666666667
165,1681776166,1007.0,1077.0,1328.0,894.5,978.0,1076.0,1079.5,1132.0,1097.5,1039.0,1305.0,1202.0,970.0,1053.0,1054.0,812.0,1213.0,1010.0,875.0,1150.0,1081.421052631579,1147.6,1153.1052631578948,1167.0
166,1681776167,983.0,1081.0,1327.0,887.0,900.0,1077.5,1084.0,1128.0,1094.0,1048.0,1312.5,1223.0,970.0,1055.0,1055.5,814.5,1211.0,1010.5,875.0,1142.5,1084.2631578947369,1148.36,1144.3157894736842,1159.3333333333333
167,1681776168,976.0,1085.0,1322.0,893.0,916.0,1079.0,1082.0,1130.5,1093.0,1048.0,1320.0,1265.5,972.5,1031.0,1057.0,817.0,1211.0,1011.0,882.0,1135.0,1087.1052631578948,1149.12,1135.5263157894738,1151.6666666666667
168,1681776169,969.0,1097.0,1323.0,890.5,914.0,1095.0,1085.0,1133.0,1093.5,1048.0,1332.0,1308.0,975.0,1027.0,1102.0,805.0,1220.0,1016.0,889.0,1114.0,1089.9473684210527,1149.88,1126.7368421052631,1144.0
169,1681776170,966.5,1089.0,1324.0,888.0,912.0,1099.0,1063.0,1133.0,1094.0,1056.0,1343.0,1374.0,975.0,1023.0,1064.0,804.5,1229.0,1024.0,895.0,1107.0,1092.7894736842106,1150.64,1117.9473684210527,1136.3333333333333
170,1681776171,964.0,1090.0,1311.0,883.0,890.0,1103.0,1041.0,1139.0,1096.0,1062.0,1354.0,1348.0,977.0,1028.0,1064.0,804.0,1250.0,1018.5,898.0,1100.0,1095.6315789473683,1151.4,1109.157894736842,1128.6666666666667
171,1681776172,959.6666666666666,1091.0,1299.5,886.0,896.5,1089.0,1019.0,1118.0,1094.5,1068.0,1345.0,1322.0,979.0,1026.0,1064.0,805.0,1244.0,1013.0,904.0,1090.0,1098.4736842105262,1152.16,1100.3684210526317,1121.0
172,1681776173,955.3333333333334,1113.0,1288.0,883.0,903.0,1047.0,1000.3333333333334,1097.0,1093.0,1074.0,1339.0,1176.0,995.0,1024.0,1057.0,810.5,1238.0,1014.0,910.0,1096.0,1101.3157894736842,1152.92,1091.578947368421,1113.3333333333333
173,1681776174,951.0,1112.0,1284.0,885.0,928.0,1048.5,981.6666666666666,1153.0,1101.0,1079.0,1333.0,1145.0,996.0,1036.0,1067.0,816.0,1218.0,1022.0,911.0,1102.0,1104.157894736842,1153.68,1082.7894736842106,1105.6666666666667
174,1681776175,955.0,1111.5,1283.0,887.0,908.0,1050.0,963.0,1154.5,1113.0,1086.5,1327.0,1114.0,993.0,1055.0,1077.0,804.0,1207.0,1030.0,914.0,1135.0,1107.0,1154.44,1074.0,1098.0
175,1681776176,955.0,1111.0,1271.0,896.0,907.0,1052.0,958.0,1156.0,1113.0,1094.0,1304.0,1108.0,990.0,1029.0,1084.0,817.0,1204.0,1036.0,917.0,1163.0,1107.4285714285713,1155.2,1073.6666666666667,1095.8333333333333
176,1681776177,955.0,1115.0,1268.5,907.0,906.0,1046.0,956.0,1146.0,1113.0,1123.0,1302.5,1088.0,996.0,1003.0,1089.5,830.0,1201.0,1036.5,919.0,1165.5,1107.857142857143,1155.96,1073.3333333333333,1093.6666666666667
177,1681776178,956.0,1126.5,1266.0,918.0,903.0,1051.0,954.0,1149.0,1118.0,1126.0,1301.0,1083.0,1004.5,1016.0,1095.0,818.0,1206.0,1037.0,918.5,1168.0,1108.2857142857142,1156.72,1073.0,1091.5
178,1681776179,962.0,1138.0,1239.0,929.0,907.0,1033.0,973.0,1157.6666666666667,1222.0,1129.0,1326.0,1078.0,1013.0,1022.5,1122.0,795.0,1207.5,1032.0,918.0,1172.0,1108.7142857142858,1157.48,1072.6666666666667,1089.3333333333333
179,1681776180,968.0,1140.0,1233.0,930.0,904.0,1039.5,968.6666666666666,1166.3333333333333,1326.0,1131.0,1333.0,1067.0,988.0,1029.0,1088.0,796.5,1209.0,1008.0,929.0,1172.0,1109.142857142857,1158.24,1072.3333333333333,1087.1666666666667
180,1681776181,974.0,1118.0,1227.0,922.0,910.0,1046.0,964.3333333333334,1175.0,1116.0,1137.0,1340.0,1074.0,1010.0,996.0,1081.0,798.0,1195.0,1003.5,944.0,1172.0,1109.5714285714287,1159.0,1072.0,1085.0
181,1681776182,974.5,1082.5,1219.0,914.0,916.5,1046.0,960.0,1169.5,1098.0,1140.0,1328.0,1081.0,1014.5,1001.5,1074.0,778.0,1191.0,999.0,948.0,1131.0,1110.0,1162.0,1075.5,1093.0
182,1681776183,975.0,1047.0,1216.0,905.0,923.0,1047.0,961.5,1164.0,1100.5,1143.0,1346.0,1101.0,1019.0,1007.0,1085.0,791.0,1187.0,995.0,952.0,1116.5,1140.0,1161.0,1079.0,1094.5
183,1681776184,978.0,1046.0,1213.0,900.5,936.0,1048.0,963.0,1146.0,1103.0,1141.0,1367.0,1089.0,997.0,999.0,1111.0,804.0,1183.0,997.0,969.0,1102.0,1125.5,1160.0,1078.0,1096.0
184,1681776185,995.0,1040.0,1215.0,896.0,916.0,1049.0,967.5,1123.5,1123.0,1139.5,1388.0,1096.0,988.0,1015.0,1137.0,791.0,1193.0,999.0,970.5,1068.0,1111.0,1159.0,1083.0,1127.0
185,1681776186,987.5,1034.0,1203.0,896.0,920.0,1050.0,972.0,1101.0,1136.5,1138.0,1309.0,1103.0,979.0,1006.5,1112.0,798.0,1213.0,1006.0,972.0,1076.0,1081.0,1146.0,1088.0,1130.0
186,1681776187,980.0,992.0,1202.0,896.5,938.0,1051.0,980.0,1090.0,1150.0,1089.0,1301.0,1104.0,955.0,998.0,1091.5,797.0,1233.0,1010.0,977.0,1084.0,1069.0,1147.5,1093.0,1133.0
187,1681776188,991.0,975.0,1201.0,897.0,956.0,1061.0,978.5,1079.0,1180.0,1051.0,1293.0,1113.0,966.0,983.0,1071.0,796.0,1232.0,1014.0,986.0,1081.0,1064.5,1149.0,1095.0,1149.0
188,1681776189,996.3333333333334,958.0,1193.0,887.0,905.0,1053.5,977.0,1101.0,1190.0,1044.0,1294.0,1122.0,977.0,986.5,1073.0,791.0,1220.0,1025.0,995.0,1064.0,1060.0,1153.0,1098.0,1115.0
189,1681776190,1001.6666666666666,957.0,1195.0,893.0,917.0,1046.0,973.0,1087.0,1190.0,1037.0,1310.5,1090.0,952.0,990.0,1078.5,790.0,1208.0,1029.5,969.0,1065.5,1097.0,1150.5,1101.0,1123.5
190,1681776191,1007.0,953.0,1197.5,893.0,910.5,1046.0,966.6666666666666,1073.0,1190.0,1022.0,1327.0,1040.5,949.5,1002.0,1084.0,789.0,1194.0,1034.0,954.0,1067.0,1094.5,1148.0,1100.0,1132.0
191,1681776192,1011.0,962.5,1200.0,894.0,904.0,1044.0,960.3333333333334,1057.0,1184.0,1022.5,1368.0,991.0,947.0,989.5,1120.0,785.5,1197.5,1033.0,939.0,1081.0,1092.0,1150.0,1097.5,1132.0
192,1681776193,1009.0,972.0,1198.0,895.0,910.0,1043.0,954.0,1044.0,1176.5,1023.0,1381.5,960.0,943.0,977.0,1093.5,782.0,1201.0,1027.5,933.0,1095.0,1089.5,1137.0,1095.0,1134.0
193,1681776194,1007.0,965.0,1203.0,901.0,886.0,1042.0,965.0,1044.5,1169.0,1022.0,1395.0,957.0,945.0,991.0,1067.0,782.0,1221.0,1022.0,937.5,1107.0,1087.0,1118.5,1059.0,1136.0
194,1681776195,995.0,970.0,1208.0,901.5,888.5,1071.0,962.5,1045.0,1191.0,1021.0,1421.0,954.0,947.0,988.0,1053.0,780.0,1233.0,1026.0,942.0,1100.0,1084.0,1100.0,1041.0,1082.0
195,1681776196,995.0,975.0,1207.0,902.0,891.0,1100.5,960.0,1032.0,1191.0,1020.0,1425.5,974.0,947.0,985.0,1055.3333333333333,778.0,1245.0,1022.5,939.0,1093.0,1081.0,1150.0,1052.5,1106.5
196,1681776197,995.0,981.0,1206.5,907.0,883.0,1130.0,978.0,1034.5,1191.0,1025.0,1430.0,964.0,939.0,1003.0,1057.6666666666667,778.0,1262.0,1019.0,941.5,1092.0,1055.0,1154.0,1064.0,1131.0
197,1681776198,1007.0,1005.0,1206.0,912.0,881.0,1076.0,984.5,1037.0,1196.0,1025.5,1447.0,954.0,936.5,1017.0,1060.0,780.0,1259.5,1022.0,944.0,1092.0,1049.5,1158.0,1128.0,1128.0
198,1681776199,1020.0,1012.5,1201.0,917.0,909.0,1074.5,991.0,1042.0,1190.0,1026.0,1445.5,944.0,934.0,1009.0,1075.0,786.5,1257.0,1022.0,940.0,1098.0,1044.0,1168.0,1119.5,1125.5
199,1681776200,1021.0,1020.0,1210.5,920.0,913.0,1073.0,989.0,1047.0,1184.0,1023.0,1444.0,947.0,941.0,1001.0,1071.5,793.0,1224.0,1023.0,935.5,1104.0,1055.0,1164.0,1111.0,1123.0
200,1681776201,1022.0,991.0,1220.0,923.0,917.0,1084.0,984.5,1009.0,1166.0,1024.5,1466.0,950.0,940.0,1004.0,1068.0,795.0,1212.0,1024.0,931.0,1106.0,1049.5,1160.0,1140.0,1126.0
201,1681776202,1029.0,1001.0,1223.0,926.0,889.0,1073.0,980.0,973.0,1166.0,1026.0,1394.0,943.0,939.0,997.5,1071.0,803.0,1200.0,1032.0,918.0,1107.5,1044.0,1154.0,1151.5,1133.0
202,1681776203,1032.5,1011.0,1222.0,921.0,917.0,1067.0,959.0,1037.0,1166.0,1022.0,1367.0,933.0,938.0,991.0,1069.0,800.5,1196.0,1027.5,921.0,1109.0,1046.0,1144.0,1163.0,1119.0
203,1681776204,1036.0,969.0,1227.0,926.5,892.0,1145.0,953.0,1033.0,1143.0,1025.0,1340.0,930.5,932.0,1016.0,1069.0,798.0,1200.0,1023.0,917.5,1109.0,1034.0,1155.5,1155.0,1105.0
204,1681776205,1011.5,964.0,1232.0,932.0,883.0,1138.5,961.0,1043.0,1121.5,1023.5,1294.0,928.0,926.0,1007.5,1069.0,795.0,1204.0,1034.0,914.0,1109.0,1042.0,1167.0,1126.0,1126.0
205,1681776206,987.0,964.5,1234.0,957.0,889.0,1132.0,954.0,1017.0,1100.0,1022.0,1274.0,915.0,917.0,999.0,1073.0,809.0,1207.0,1029.5,919.0,1109.0,1050.0,1147.0,1099.0,1124.5
206,1681776207,970.5,965.0,1253.0,970.0,892.5,1095.0,953.5,991.0,1089.0,1030.0,1254.0,909.0,923.0,1010.0,1069.0,823.0,1209.0,1025.0,917.5,1025.0,1057.0,1140.0,1072.0,1123.0
207,1681776208,954.0,966.0,1244.5,968.5,896.0,1071.5,953.0,1043.0,1077.0,1031.5,1254.0,903.0,929.0,1001.5,1065.0,787.0,1211.0,1032.0,916.0,1077.5,1051.0,1133.0,1056.5,1135.0
208,1681776209,941.0,974.0,1236.0,967.0,894.0,1048.0,958.0,1051.5,1065.0,1033.0,1250.0,898.0,933.5,993.0,1061.0,786.0,1223.0,1031.0,929.0,1130.0,1045.0,1135.0,1041.0,1145.0
209,1681776210,939.0,982.0,1234.0,971.0,897.5,1051.0,958.0,1060.0,1055.0,1035.0,1246.0,901.5,938.0,1005.0,1057.0,786.5,1219.5,1030.0,928.0,1121.0,1042.0,1143.5,1094.0,1155.0
210,1681776211,937.0,1009.0,1230.5,989.0,901.0,1062.0,958.0,1044.0,1053.5,1041.5,1253.0,905.0,938.5,996.0,1053.0,787.0,1216.0,1035.0,927.0,1107.0,1044.5,1152.0,1096.5,1148.0
211,1681776212,918.0,1016.5,1227.0,990.0,913.0,1073.0,958.0,1048.5,1052.0,1048.0,1249.0,915.0,939.0,1007.5,1050.0,787.0,1202.0,1033.5,937.0,1093.0,1047.0,1111.0,1099.0,1158.5
212,1681776213,912.0,1024.0,1211.0,991.0,921.0,1064.0,966.0,1053.0,1053.0,1053.0,1245.0,916.5,944.0,1019.0,1051.0,784.5,1191.5,1032.0,938.5,1092.0,1053.0,1110.5,1074.0,1169.0
213,1681776214,906.0,968.0,1205.5,993.0,929.0,1062.0,968.3333333333334,1042.0,1074.0,1051.0,1240.0,918.0,944.5,991.0,1052.0,782.0,1181.0,1022.0,940.0,1090.0,1056.5,1110.0,1063.0,1149.0
214,1681776215,918.0,961.0,1200.0,997.0,924.0,1060.0,970.6666666666666,1043.0,1085.5,1049.0,1242.5,926.0,945.0,985.5,991.0,795.0,1151.0,1015.5,961.0,1088.0,1060.0,1111.0,1057.0,1153.5
215,1681776216,931.0,954.0,1189.0,1001.0,917.0,1113.0,973.0,1044.0,1097.0,1047.5,1245.0,915.0,944.0,980.0,1042.0,791.5,1137.0,1009.0,970.5,1083.0,1062.0,1107.5,1051.0,1158.0
216,1681776217,944.0,952.0,1188.5,1022.0,959.0,1120.0,982.0,1045.0,1166.0,1046.0,1240.0,926.5,943.0,965.0,1048.0,788.0,1132.0,1004.0,980.0,1089.0,1059.0,1104.0,1025.0,1191.0
217,1681776218,948.0,954.5,1188.0,1024.5,1001.0,1115.0,983.5,1037.0,1169.0,1046.0,1232.0,938.0,947.0,974.0,1054.0,804.0,1127.0,1005.0,1000.0,1089.0,1056.0,1107.0,1021.5,1156.0
218,1681776219,947.0,957.0,1184.0,1027.0,918.0,1110.0,985.0,1033.5,1172.0,1046.0,1233.5,965.0,951.0,983.0,1067.0,803.5,1120.0,1006.0,997.5,1089.0,1068.0,1112.0,1018.0,1152.5
219,1681776220,946.0,967.0,1187.0,1021.0,910.5,1076.0,979.0,1030.0,1184.0,1042.3333333333333,1235.0,982.0,948.0,960.0,1064.5,803.0,1115.5,1011.0,995.0,1084.0,1086.0,1117.0,1016.0,1149.0
220,1681776221,922.0,959.5,1190.0,1025.5,903.0,1060.0,977.0,1064.0,1175.0,1038.6666666666667,1230.0,989.5,949.5,969.0,1062.0,804.0,1111.0,1009.5,997.0,1084.0,1104.0,1125.0,1020.5,1067.0
221,1681776222,919.0,952.0,1187.0,1030.0,891.0,1039.5,975.0,1048.0,1160.5,1035.0,1226.0,997.0,951.0,978.0,1058.0,808.5,1117.0,1008.0,996.0,1084.0,1075.0,1119.5,1025.0,1060.0
222,1681776223,916.0,951.0,1190.5,1040.0,929.0,1019.0,973.0,1032.0,1146.0,1060.0,1221.5,984.0,948.5,946.0,1057.0,813.0,1125.5,1013.0,995.0,1080.0,1074.5,1114.0,1025.0,1053.0
223,1681776224,917.0,952.0,1194.0,1044.0,917.0,1015.0,972.5,1061.0,1131.0,1067.0,1217.0,1004.0,946.0,957.5,1056.0,811.0,1134.0,1018.5,946.0,1076.0,1074.0,1111.0,1025.0,1058.0
224,1681776225,929.0,952.5,1203.0,1048.0,917.0,992.0,972.0,1039.0,1126.0,1074.0,1215.0,1024.0,954.0,969.0,1057.0,815.0,1144.0,1024.0,932.0,1091.0,1079.0,1158.0,1025.0,1015.5
225,1681776226,932.5,953.0,1200.0,1055.0,917.0,995.5,976.0,1056.0,1121.0,1065.0,1212.5,1019.0,942.0,966.0,1058.0,819.0,1152.0,1015.0,918.0,1097.0,1059.0,1141.5,1015.0,973.0
226,1681776227,936.0,953.0,1197.0,1053.5,915.0,999.0,980.0,1043.5,1134.0,1048.0,1210.0,1006.5,935.5,959.5,1059.0,830.0,1160.0,1016.0,914.0,1101.0,1078.5,1125.0,1011.0,1051.0
227,1681776228,919.0,951.5,1174.0,1052.0,900.0,988.0,980.0,1031.0,1111.0,1049.0,1217.0,994.0,929.0,953.0,1068.0,823.5,1178.0,1021.5,910.0,1105.0,1098.0,1133.0,1030.5,1055.0
228,1681776229,913.5,950.0,1164.0,1037.0,915.0,1004.0,974.0,1071.0,1102.0,1050.0,1217.0,963.0,927.0,966.0,1065.0,817.0,1185.0,1027.0,908.0,1116.0,1057.0,1128.0,1050.0,1049.5
229,1681776230,908.0,949.0,1163.5,1024.0,931.0,1004.0,990.0,1060.0,1093.0,1075.0,1217.0,980.0,933.5,978.0,1062.0,770.0,1182.0,1032.0,906.0,1121.0,1054.5,1090.0,1003.0,1044.0
230,1681776231,901.0,954.0,1163.0,1020.5,941.0,936.0,992.0,1037.0,1088.0,1078.5,1216.0,997.0,940.0,985.5,1056.0,792.5,1179.0,1039.0,914.0,1122.0,1052.0,1052.0,1003.5,1060.0
231,1681776232,901.0,954.5,1159.0,1017.0,970.0,960.5,994.0,1047.0,1085.0,1082.0,1204.0,1028.0,935.0,993.0,1055.0,815.0,1172.0,1044.0,922.0,1126.0,1047.0,1100.0,1004.0,1067.0
232,1681776233,901.0,955.0,1155.0,993.0,954.0,985.0,965.0,1057.0,1082.0,1084.0,1206.0,1021.5,955.0,966.0,1054.0,813.0,1180.0,1049.0,936.6666666666666,1130.0,1048.0,1119.0,1013.0,1074.0
233,1681776234,916.0,953.0,1151.0,988.0,938.0,999.0,965.0,1044.0,1088.0,1077.5,1208.0,1015.0,975.0,973.0,1081.0,813.0,1167.0,1047.0,951.3333333333334,1139.0,1040.5,1138.0,1009.0,1071.0
234,1681776235,921.0,953.0,1142.0,983.0,943.0,997.5,965.0,1052.0,1099.5,1071.0,1203.0,1007.0,936.0,980.0,1088.0,821.0,1157.5,1013.0,966.0,1172.0,1033.0,1125.0,997.5,1069.0
235,1681776236,924.0,953.0,1141.5,965.0,925.0,996.0,956.0,1048.0,1111.0,1047.0,1206.5,1006.0,915.0,988.0,1104.5,829.0,1148.0,992.0,970.5,1172.3333333333333,1049.0,1121.0,986.0,1069.0
236,1681776237,927.0,963.0,1141.0,959.0,926.5,990.0,961.0,1044.0,1099.0,1054.0,1210.0,995.0,915.5,991.5,1121.0,830.0,1137.0,985.0,975.0,1172.6666666666667,1049.0,1121.0,1014.0,1069.0
237,1681776238,936.5,962.0,1154.0,953.0,928.0,966.5,961.3333333333334,1062.0,1090.0,1064.0,1204.0,984.0,916.0,995.0,1147.0,839.0,1141.0,976.0,973.0,1173.0,1049.0,1121.0,1013.5,1076.0
238,1681776239,946.0,962.5,1172.0,938.0,914.0,943.0,961.6666666666666,1048.0,1081.0,1074.0,1207.0,957.0,929.0,990.0,1128.5,848.0,1176.0,973.0,971.0,1080.0,1053.0,1115.0,1013.0,1073.5
239,1681776240,942.0,963.0,1191.0,936.0,918.0,1006.0,962.0,1053.0,1091.0,1101.0,1210.0,971.0,925.0,991.0,1110.0,858.0,1172.0,970.0,952.6666666666666,1084.0,1057.0,1128.0,1004.0,1071.0
240,1681776241,938.0,945.0,1210.0,935.5,915.0,1002.0,959.0,1058.0,1107.0,1093.0,1209.0,985.0,921.0,1067.5,1111.0,841.5,1159.0,977.0,934.3333333333334,1084.0,1062.0,1141.0,1006.0,1091.0
241,1681776242,948.0,949.0,1218.0,935.0,912.0,1007.0,956.0,1060.0,1122.0,1085.0,1211.0,990.0,921.0,1144.0,1102.0,825.0,1146.0,973.0,916.0,1077.0,1067.0,1158.0,1008.0,1082.0
242,1681776243,949.5,953.0,1219.0,937.0,912.0,1012.0,955.0,1072.0,1137.0,1066.0,1211.5,990.0,923.5,1328.0,1093.0,794.0,1126.0,970.0,899.0,1070.0,1066.0,1164.0,1003.0,1073.0
243,1681776244,951.0,953.0,1205.0,877.0,912.0,1007.0,954.0,1070.5,1134.0,1069.0,1212.0,990.0,926.0,1404.5,1095.0,757.0,1117.0,971.5,882.0,1067.0,1075.0,1170.0,1000.0,1085.0
244,1681776245,954.0,952.0,1191.0,875.0,954.0,1015.0,954.0,1069.0,1133.0,1072.0,1217.0,993.0,922.0,1481.0,1095.0,750.0,1112.0,973.0,884.6666666666666,1061.0,1084.0,1173.0,1005.5,1086.0
245,1681776246,950.0,952.0,1201.0,873.0,996.0,1019.0,954.0,1096.0,1132.0,1057.0,1222.0,1017.0,926.0,1611.0,1092.5,743.0,1115.0,982.0,887.3333333333334,1048.0,1109.0,1178.0,1011.0,1087.0
246,1681776247,946.0,952.0,1218.5,876.0,921.0,1002.5,956.0,1123.0,1127.0,1089.0,1227.0,1035.0,930.0,1622.0,1090.0,740.0,1118.0,996.0,890.0,1054.0,1097.0,1183.0,1021.0,1094.0
247,1681776248,931.0,949.0,1236.0,868.0,897.0,986.0,961.0,1082.0,1145.0,1096.0,1295.0,1053.0,921.0,1633.0,1119.0,742.0,1116.0,1002.5,894.0,1060.0,1085.0,1176.0,1016.5,1104.0
248,1681776249,929.0,950.5,1233.0,860.0,933.0,1058.0,966.0,1069.0,1163.0,1103.0,1302.0,1068.0,923.5,1360.0,1122.5,744.0,1119.5,1009.0,902.5,1080.0,1098.0,1178.0,1012.0,1099.5
249,1681776250,924.5,952.0,1220.0,869.0,923.0,1057.5,961.0,1056.0,1172.0,1123.0,1309.0,1066.5,926.0,1306.5,1126.0,748.0,1123.0,998.0,911.0,1094.5,1099.0,1180.0,1022.0,1095.0
250,1681776251,920.0,953.0,1220.0,849.0,920.0,1057.0,956.0,1049.5,1204.0,1132.0,1316.0,1065.0,960.0,1253.0,1144.0,751.0,1109.0,1002.0,923.0,1109.0,1100.0,1195.0,1018.5,1085.0
251,1681776252,910.0,954.5,1220.0,853.5,910.0,1049.0,963.0,1043.0,1206.5,1141.0,1312.0,1031.0,1108.0,1217.0,1143.0,754.0,1133.0,1006.0,911.5,1147.0,1104.0,1217.0,1015.0,1083.0
252,1681776253,908.6666666666666,956.0,1219.0,858.0,900.0,1047.5,960.0,1054.0,1209.0,1231.0,1311.0,1016.5,1113.0,1193.5,1142.0,812.0,1129.5,1004.0,900.0,1148.0,1072.0,1230.0,1024.0,1081.0
253,1681776254,907.3333333333334,953.0,1232.0,850.0,934.0,1046.0,957.0,1069.0,1208.0,1283.5,1310.0,1002.0,1118.0,1170.0,1122.0,781.0,1126.0,1006.0,867.0,1149.0,1072.5,1243.0,1031.0,1080.0
254,1681776255,906.0,951.0,1244.0,851.0,929.0,1034.0,954.0,1058.5,1208.5,1336.0,1316.0,1010.0,1089.0,1139.0,1091.0,750.0,1133.0,1008.0,860.5,1150.0,1073.0,1241.0,1036.5,1079.0
255,1681776256,909.5,954.0,1256.0,861.0,917.5,1056.0,980.0,1048.0,1209.0,1417.0,1327.0,1019.0,1075.5,1125.5,1060.0,752.0,1135.0,1009.0,854.0,1009.0,1070.0,1263.0,1042.0,1078.0
256,1681776257,913.0,959.0,1237.0,876.0,906.0,1041.0,980.5,1054.0,1199.0,1470.0,1338.0,1003.0,1062.0,1112.0,1026.0,749.5,1137.0,1013.0,867.0,1062.5,1090.0,1285.0,1047.0,1069.0
257,1681776258,907.0,961.0,1218.0,898.5,938.0,1044.0,981.0,1047.5,1183.0,1446.0,1370.0,987.0,1022.0,1078.0,1027.5,747.0,1140.0,1015.0,868.5,1116.0,1110.0,1301.0,1049.5,1071.0
258,1681776259,906.0,963.0,1180.0,921.0,935.6666666666666,1047.0,990.0,1041.0,1201.5,1422.0,1379.5,1008.0,1004.5,1068.0,1029.0,752.0,1141.0,1017.0,870.0,1101.0,1061.0,1297.5,1052.0,1076.5
259,1681776260,905.0,971.0,1180.0,902.0,933.3333333333334,1035.0,993.0,1042.0,1220.0,1254.0,1389.0,1006.5,987.0,1058.0,1033.0,752.0,1142.0,1009.0,867.0,1110.0,1065.0,1294.0,1066.0,1082.0
260,1681776261,906.0,959.0,1180.0,899.5,931.0,1034.0,996.5,1044.0,1215.0,1220.5,1365.0,1005.0,979.0,1074.0,1041.5,752.0,1145.0,1011.5,856.0,1119.0,1069.0,1281.0,1051.5,1091.0
261,1681776262,914.0,964.5,1221.0,897.0,942.0,1032.5,1000.0,1047.5,1193.5,1187.0,1363.0,978.0,974.0,1051.5,1050.0,755.0,1148.0,1014.0,854.0,1014.0,1071.0,1289.0,1037.0,1084.0
262,1681776263,916.0,970.0,1237.5,893.0,948.5,1031.0,998.0,1051.0,1172.0,1146.0,1353.5,905.0,969.0,1029.0,1069.0,753.5,1151.0,1034.0,852.0,1053.5,1078.0,1260.0,1014.0,1077.0
263,1681776264,918.0,981.0,1254.0,894.0,955.0,1019.0,997.5,1057.0,1153.0,1089.0,1344.0,903.0,961.0,1037.0,1062.5,752.0,1155.0,1042.0,844.0,1093.0,1030.0,1273.0,996.0,1070.0
264,1681776265,926.0,992.0,1262.0,893.5,923.0,1026.0,997.0,1064.0,1173.5,1088.5,1369.0,901.0,957.5,1031.5,1056.0,753.0,1155.0,1050.0,840.0,1061.0,1051.5,1286.0,933.0,1070.0
265,1681776266,929.0,990.0,1277.0,893.0,935.0,1033.0,991.0,1054.0,1194.0,1088.0,1373.5,932.0,954.0,1026.0,1039.0,759.0,1155.0,1080.0,836.0,1054.5,1073.0,1284.0,967.0,1067.0
266,1681776267,931.0,988.0,1266.0,897.0,932.0,1027.0,994.0,1044.0,1181.0,1062.0,1378.0,968.5,952.0,1028.0,1032.5,765.0,1159.0,1077.0,843.0,1048.0,1061.0,1260.5,1001.0,1068.0
267,1681776268,933.0,979.0,1243.0,896.0,929.0,1032.5,997.0,1055.0,1151.0,1056.0,1393.0,1005.0,949.0,1016.0,1026.0,754.0,1158.0,1074.0,851.5,1084.0,1062.5,1237.0,988.0,1069.0
268,1681776269,926.0,981.0,1220.0,902.0,936.0,1038.0,997.0,1053.0,1139.0,1050.0,1383.0,952.0,946.0,1027.0,1029.0,761.0,1158.5,1068.0,860.0,1089.0,1064.0,1184.0,991.5,989.0
269,1681776270,934.0,980.5,1211.0,908.0,945.3333333333334,1031.0,994.0,1051.0,1127.0,1052.0,1329.0,924.0,944.0,1038.0,1009.0,756.5,1159.0,1071.0,873.0,1082.5,1062.0,1141.0,995.0,1035.0
270,1681776271,942.0,980.0,1204.5,899.0,954.6666666666666,980.0,993.0,1058.0,1131.0,1043.5,1275.0,910.5,942.3333333333334,1009.0,1022.0,752.0,1161.0,1074.0,879.5,1076.0,1059.0,1126.0,1001.0,1081.0
271,1681776272,947.0,963.0,1198.0,894.0,964.0,1009.0,1001.0,1069.0,1136.5,1035.0,1249.0,897.0,940.6666666666666,991.0,1019.5,752.0,1161.0,1076.0,886.0,1070.0,1056.0,1111.0,972.0,1071.0
272,1681776273,943.0,959.5,1197.0,889.0,956.0,1033.0,998.0,1050.0,1142.0,1041.0,1236.0,894.0,939.0,996.5,1017.0,748.0,1161.0,1104.0,893.0,1069.0,1061.0,1106.0,943.0,1075.5
273,1681776274,936.0,956.0,1198.5,899.0,944.0,1024.5,995.0,1032.0,1188.0,1033.0,1223.0,867.0,941.0,1002.0,1026.0,750.0,1161.0,1118.5,906.0,1068.0,1063.0,1104.5,996.0,1080.0
274,1681776275,929.0,959.0,1200.0,896.0,945.0,1016.0,992.0,1042.5,1150.0,1028.5,1217.0,840.0,926.0,999.0,1021.5,752.0,1154.0,1133.0,909.5,1081.0,1068.0,1103.0,1004.0,1077.0
275,1681776276,924.0,960.5,1190.0,893.0,851.0,1020.5,997.0,1053.0,1163.0,1024.0,1219.0,846.0,926.0,996.5,1017.0,813.0,1154.5,1130.0,913.0,1078.5,1073.0,1111.0,1004.5,1069.5
276,1681776277,924.0,962.0,1184.0,893.0,931.0,1025.0,1004.0,1061.0,1176.0,1026.0,1221.0,853.5,926.0,994.0,1025.0,783.0,1155.0,1131.5,932.0,1076.0,1071.0,1113.5,1005.0,1062.0
277,1681776278,924.0,959.0,1166.0,886.0,979.0,1046.0,1007.0,1050.0,1203.0,1025.5,1267.0,861.0,928.0,990.0,1021.5,753.0,1151.0,1133.0,942.0,1059.0,1073.5,1116.0,1005.0,1069.0
278,1681776279,924.0,959.0,1160.5,889.5,1023.0,1050.0,1006.0,1051.0,1217.0,1025.0,1293.0,880.0,909.5,1002.0,1018.0,750.0,1152.325,1128.95,952.0,1059.275,1076.0,1094.0,998.5,1068.0
279,1681776280,922.0,964.0,1155.0,893.0,1022.0,1042.5,1003.0,1052.0,1231.0,1019.0,1308.0,885.0,891.0,1001.5,1021.0,753.5,1153.65,1124.9,950.1578947368421,1059.55,1068.0,1098.0,992.0,1073.0
280,1681776281,932.5,969.0,1160.0,881.0,1022.0,1035.0,985.0,1053.0,1203.0,1009.0,1323.0,891.5,931.0,1001.0,1020.0,757.0,1154.975,1120.85,948.3157894736842,1059.825,1073.0,1098.0,991.0,1078.0
281,1681776282,943.0,968.0,1155.0,884.0,1022.0,1033.0,995.5,1081.0,1175.0,1008.5,1342.0,898.0,930.0,995.0,1019.0,756.0,1156.3,1116.8,946.4736842105264,1060.1,1077.0,1098.0,1005.5,1055.0
282,1681776283,939.0,981.0,1150.0,887.0,1018.0,1036.5,1006.0,1057.0,1160.0,1008.0,1343.0,880.0,929.0,1003.0,1017.0,757.0,1157.625,1112.75,944.6315789473684,1060.375,1081.0,1111.0,1020.0,1059.5
283,1681776284,929.5,981.5,1138.0,890.0,1026.0,1040.0,1008.0,1056.5,1145.0,1007.0,1318.0,876.0,921.0,1011.0,992.0,752.5,1158.95,1108.7,942.7894736842105,1060.65,1081.0,1109.0,1013.0,1064.0
284,1681776285,920.0,982.0,1143.857142857143,892.75,1034.0,1045.0,1006.0,1056.0,1152.0,1004.5,1293.0,872.0,921.0,991.0,967.0,748.0,1160.275,1104.65,940.9473684210526,1060.925,1079.5,1107.0,1000.0,1067.0
285,1681776286,920.6666666666666,985.3461538461538,1149.7142857142858,895.5,1035.0,1039.0,1004.0,1070.0,1156.5,1002.0,1217.0,859.0,921.0,999.0,1015.0,747.0,1161.6,1100.6,939.1052631578947,1061.2,1078.0,1116.0,1005.5,1064.0
286,1681776287,921.3333333333334,988.6923076923077,1155.5714285714287,898.25,1057.0,1033.0,1006.0,1062.5,1161.0,1026.0,1204.0,836.0,918.0,1007.0,1017.0,749.5,1162.925,1096.55,937.2631578947369,1061.475,1043.0,1103.0,1011.0,1067.5
287,1681776288,922.0,992.0384615384615,1161.4285714285713,901.0,1034.0,1032.0,1007.0,1055.0,1141.0,1016.0,1191.0,843.5,921.5,1003.0,1019.0,752.0,1164.25,1092.5,935.421052631579,1061.75,1062.0,1090.0,1004.0,1071.0
288,1681776289,922.6666666666666,995.3846153846154,1167.2857142857142,903.75,1032.5,1031.0,1011.5,1073.0,1127.0,1019.5,1180.0,851.0,925.0,1002.5,1026.0,755.0,1165.575,1088.45,933.578947368421,1062.025,1081.0,1098.0,1006.0,1061.0
289,1681776290,923.3333333333334,998.7307692307693,1173.142857142857,906.5,1031.0,1006.0,1016.0,1082.0,1117.0,1023.0,1191.0,828.0,938.0,1002.0,1026.0,758.5,1166.9,1084.4,931.7368421052631,1062.3,1064.0,1094.0,1008.0,1073.0
290,1681776291,924.0,1002.0769230769231,1179.0,909.25,1033.0,981.0,1006.0,1080.0,1107.0,1023.0,1193.0,837.5,931.5,992.0,1008.5,762.0,1168.225,1080.35,929.8947368421053,1062.575,1071.0,1091.0,983.0,1085.0
291,1681776292,924.6666666666666,1005.4230769230769,1184.857142857143,912.0,1001.0,1041.0,1009.0,1078.0,1093.0,1021.5,1195.0,847.0,925.0,989.5,991.0,753.0,1169.55,1076.3,928.0526315789474,1062.85,1074.5,1088.0,995.0,1080.0
292,1681776293,925.3333333333334,1008.7692307692307,1190.7142857142858,914.75,969.0,1037.0,1011.0,1082.0,1086.5,1020.0,1178.0,827.0,931.0,987.0,1007.0,752.0,1170.875,1072.25,926.2105263157895,1063.125,1078.0,1085.0,991.5,1090.0
293,1681776294,926.0,1012.1153846153846,1196.5714285714287,917.5,970.0,1033.0,1013.0,1078.5,1080.0,1022.0,1194.0,833.5,926.0,1003.0,1023.0,758.0,1172.2,1068.2,924.3684210526316,1063.4,1042.0,1095.0,988.0,1081.5
294,1681776295,926.6666666666666,1015.4615384615385,1202.4285714285713,920.25,980.5,1036.0,1010.0,1075.0,1077.0,1019.3333333333334,1210.0,840.0,932.0,1001.0,1039.0,764.0,1173.525,1064.15,922.5263157894736,1063.675,1060.0,1090.0,983.0,1073.0
295,1681776296,927.3333333333334,1018.8076923076923,1208.2857142857142,923.0,991.0,1039.5,1010.5,1066.0,1064.0,1016.6666666666666,1244.0,849.0,938.0,987.5,1030.0,760.0,1174.85,1060.1,920.6842105263158,1063.95,1078.0,1085.0,987.5,1061.0
296,1681776297,928.0,1022.1538461538462,1214.142857142857,925.75,993.5,1043.0,1011.0,1057.0,1059.5,1014.0,1246.0,846.0,933.0,974.0,1030.0,757.0,1176.175,1056.05,918.8421052631579,1064.225,1085.0,1089.0,992.0,1068.0
297,1681776298,928.6666666666666,1025.5,1220.0,928.5,996.0,1050.5,1010.0,1066.0,1055.0,1016.0,1248.0,857.5,927.0,981.0,1030.0,754.0,1177.5,1052.0,917.0,1064.5,1091.8,1062.0,1000.0,1075.0
298,1681776299,929.3333333333334,1028.8461538461538,1225.857142857143,931.25,1017.3333333333334,1058.0,1009.0,1066.0,1051.6666666666667,1018.0,1257.5,869.0,921.0,988.0,1030.0,764.6666666666666,1178.825,1047.95,915.1578947368421,1064.775,1098.6,1035.0,995.6666666666666,1117.0
299,1681776300,930.0,1032.1923076923076,1231.7142857142858,934.0,1038.6666666666667,1060.75,1008.0,1066.0,1048.3333333333333,1019.0,1267.0,870.6,923.6,986.0,1030.0,775.3333333333334,1180.15,1043.9,913.3157894736842,1065.05,1105.4,1048.75,991.3333333333334,1159.0
300,1681776301,930.6666666666666,1035.5384615384614,1237.5714285714287,936.75,1060.0,1063.5,1008.4166666666666,1066.0,1045.0,1020.0,1259.8,872.2,926.2,984.0,1031.0,786.0,1181.475,1039.85,911.4736842105264,1065.325,1112.2,1062.5,987.0,1143.8
301,1681776302,931.3333333333334,1038.8846153846155,1243.4285714285713,939.5,1043.0,1066.25,1008.8333333333334,1066.0,1045.75,1021.0,1252.6,873.8,928.8,982.0,1032.0,780.3333333333334,1182.8,1035.8,909.6315789473684,1065.6,1119.0,1076.25,987.6,1128.6
302,1681776303,932.0,1042.2307692307693,1249.2857142857142,942.25,1026.0,1069.0,1009.25,1066.75,1046.5,1020.4,1245.4,875.4,931.4,985.5,1033.0,774.6666666666666,1184.125,1031.75,907.7894736842105,1065.875,1121.0,1090.0,988.2,1113.4
303,1681776304,932.6666666666666,1045.576923076923,1255.142857142857,945.0,1009.0,1072.2,1009.6666666666666,1067.5,1047.25,1019.8,1238.2,877.0,934.0,989.0,1034.0,769.0,1185.45,1027.7,905.9473684210526,1066.15,1123.0,1088.3333333333333,988.8,1098.2
304,1681776305,933.3333333333334,1048.923076923077,1261.0,947.75,992.0,1075.4,1010.0833333333334,1068.25,1048.0,1019.2,1231.0,875.5,933.1666666666666,992.5,1035.0,763.3333333333334,1186.775,1023.65,904.1052631578948,1066.425,1125.0,1086.6666666666667,989.4,1083.0
305,1681776306,934.0,1052.2692307692307,1266.857142857143,950.5,981.75,1078.6,1010.5,1069.0,1047.3333333333333,1018.6,1223.8,874.0,932.3333333333334,996.0,1033.5,757.6666666666666,1188.1,1019.6,902.2631578947369,1066.7,1127.0,1085.0,990.0,1084.0
306,1681776307,934.6666666666666,1055.6153846153845,1272.7142857142858,953.25,971.5,1081.8,1010.9166666666666,1068.5,1046.6666666666667,1018.0,1216.6,872.5,931.5,999.5,1032.0,752.0,1189.425,1015.55,900.421052631579,1066.975,1129.0,1083.3333333333333,990.4,1085.0
307,1681776308,935.3333333333334,1058.9615384615386,1278.5714285714284,956.0,961.25,1085.0,1011.3333333333334,1068.0,1046.0,1016.6,1209.4,871.0,930.6666666666666,1003.0,1030.5,753.8,1190.75,1011.5,898.578947368421,1067.25,1131.0,1081.6666666666667,990.8,1086.0
308,1681776309,936.0,1062.3076923076924,1284.4285714285713,958.75,951.0,1086.0,1011.75,1067.5,1045.3333333333333,1015.2,1202.2,869.5,929.8333333333334,1003.0,1029.0,755.6,1192.075,1007.45,896.7368421052631,1067.525,1134.75,1080.0,991.2,1087.0
309,1681776310,936.6666666666666,1065.6538461538462,1290.2857142857142,961.5,973.0,1087.0,1012.1666666666666,1067.0,1044.6666666666667,1013.8,1195.0,868.0,929.0,1003.0,1027.5,757.4,1193.4,1003.4,894.8947368421053,1067.8,1138.5,1083.3333333333333,991.6,1088.0
310,1681776311,937.3333333333334,1069.0,1296.142857142857,964.25,995.0,1088.0,1012.5833333333334,1071.0,1044.0,1012.4,1199.5,866.5,910.0,1003.0,1026.0,759.2,1194.725,999.35,893.0526315789474,1068.075,1142.25,1086.6666666666667,992.0,1088.3333333333333
311,1681776312,938.0,1070.0,1302.0,967.0,1017.0,1106.5,1013.0,1075.0,1045.5,1011.0,1204.0,865.0,891.0,1003.0,1025.0,761.0,1196.05,995.3,891.2105263157895,1068.35,1146.0,1090.0,987.5,1088.6666666666667
312,1681776313,941.0,1071.0,1305.5,957.0,1021.0,1125.0,1010.0,1079.0,1047.0,1008.0,1205.0,862.0,916.5,1002.0,1024.0,765.0,1197.375,991.25,889.3684210526316,1068.625,1149.0,1090.0,983.0,1089.0
313,1681776314,944.0,1081.0,1309.0,959.5,1025.0,1110.0,1008.0,1079.0,1061.0,1012.0,1206.0,868.0,942.0,1002.0,1032.0,762.5,1198.7,987.2,887.5263157894736,1068.9,1136.0,1090.0,987.0,1085.0
314,1681776315,944.0,1084.0,1312.0,962.0,970.0,1100.5,1006.0,1092.5,1067.0,1016.0,1202.0,874.0,938.0,1002.0,1028.5,760.0,1200.025,983.15,885.6842105263158,1069.175,1123.0,1085.0,991.0,1148.0
315,1681776316,945.0,1087.0,1308.0,970.0,1006.5,1091.0,1008.0,1106.0,1073.0,1016.0,1204.5,876.0,936.5,1012.0,1025.0,812.0,1201.35,979.1,883.8421052631579,1069.45,1103.0,1089.5,995.0,1113.0
316,1681776317,946.0,1100.0,1309.5,984.0,1043.0,1139.0,1005.5,1102.0,1078.0,1012.5,1207.0,942.5,935.0,997.0,1024.0,790.0,1202.675,975.05,882.0,1069.725,1102.5,1094.0,991.0,1078.0
317,1681776318,944.0,1104.5,1311.0,984.5,1030.0,1132.0,1003.0,1097.0,1086.5,1009.0,1199.0,1009.0,942.0,982.0,1026.5,768.0,1204.0,971.0,885.5,1070.0,1102.0,1090.0,955.0,1082.0
318,1681776319,944.0,1109.0,1318.0,985.0,1041.0,1125.0,1008.0,1114.5,1095.0,1013.0,1206.0,861.0,939.0,1026.0,1029.0,765.0,1212.0,972.0,889.0,1073.0,1129.0,1096.0,919.0,1082.0
319,1681776320,944.0,1115.0,1325.5,979.0,1052.0,1126.0,1007.0,1132.0,1061.0,1022.0,1213.0,861.5,936.0,1027.5,1028.0,763.0,1220.0,971.5,893.0,1076.0,1102.5,1101.5,996.0,1082.0
320,1681776321,943.0,1121.0,1333.0,987.0,972.0,1083.5,1006.0,1217.0,1062.5,1021.5,1204.0,862.0,937.0,1029.0,1028.5,762.5,1225.5,971.0,891.5,1073.0,1076.0,1107.0,993.5,1082.0
321,1681776322,943.0,1127.0,1336.5,995.0,1017.5,1041.0,1026.0,1208.0,1064.0,1021.0,1198.5,865.0,938.0,1026.0,1029.0,762.0,1231.0,968.0,890.0,1072.0,1066.0,1103.5,991.0,1082.5
322,1681776323,943.0,1140.0,1340.0,1004.0,1063.0,1016.0,1031.0,1199.0,1063.0,1018.0,1193.0,867.0,939.0,1031.0,1026.0,765.0,1228.0,970.5,882.0,1071.0,1060.5,1100.0,995.0,1083.0
323,1681776324,944.0,1127.5,1337.0,1013.0,1035.0,1031.0,1036.0,1179.0,1080.0,1025.5,1184.0,869.0,939.0,1036.0,1051.0,764.5,1226.0,973.0,880.0,1083.0,1055.0,1099.0,990.5,1082.0
324,1681776325,952.0,1115.0,1357.0,1004.0,1007.0,1046.0,1045.0,1164.5,1072.5,1033.0,1197.0,871.0,936.0,1117.0,1043.0,764.0,1228.0,976.0,878.0,1100.0,1044.5,1094.0,986.0,1084.0
325,1681776326,960.0,1119.0,1377.0,998.0,951.0,1037.0,1036.0,1150.0,1065.0,1041.0,1210.0,868.0,932.0,1122.0,1035.0,774.0,1230.0,982.0,863.0,1104.5,1034.0,1092.0,999.0,1094.0
326,1681776327,962.0,1123.0,1375.0,1005.0,895.0,1035.0,1037.0,1127.0,1051.0,1040.5,1217.0,865.0,928.0,1127.0,1029.0,774.0,1253.0,988.0,856.5,1109.0,1037.5,1095.0,992.0,1104.0
327,1681776328,964.0,1116.0,1373.0,1007.5,966.0,1060.0,1035.0,1119.0,1054.0,1040.0,1217.0,898.0,927.0,1182.0,1031.5,774.0,1262.0,1006.0,850.0,1109.0,1041.0,1098.0,995.0,1093.0
328,1681776329,964.0,1116.5,1348.0,1010.0,959.0,1033.0,1046.0,1116.0,1057.0,1043.4583333333333,1223.2083333333333,898.8260869565217,925.5,1167.0,1034.0,778.0,1271.0,1019.0,843.0,1113.5,1042.0,1100.0,998.0,1088.5
329,1681776330,962.0,1117.0,1324.0,1017.0,961.0,1047.0,1048.0,1122.0,1060.0,1046.9166666666667,1229.4166666666667,899.6521739130435,924.0,1178.0,1035.0,777.0,1275.0,1032.0,841.5,1118.0,1045.0,1105.0,989.0,1084.0
330,1681776331,960.0,1145.0,1313.0,1016.0,940.0,1044.0,1056.5,1138.0,1063.0,1050.375,1235.625,900.4782608695652,921.0,1189.0,1033.5,779.5,1265.5,1046.0,840.0,1131.0,1046.5,1110.0,994.0,1095.0
331,1681776332,932.0,1147.0,1302.0,1014.5,932.0,1056.0,1065.0,1137.0,1066.0,1053.8333333333333,1241.8333333333333,901.304347826087,922.5,1146.0,1032.0,782.0,1256.0,1069.0,839.0,1125.0,1048.0,1110.0,999.0,1095.0
332,1681776333,955.0,1143.0,1285.0,1013.0,949.0,1068.0,1064.0,1142.0,1069.0,1057.2916666666667,1248.0416666666667,902.1304347826087,924.0,1159.0,1026.0,783.0,1254.0,1068.5,841.0,1119.0,1051.0,1109.0,1002.0,1095.0
333,1681776334,978.0,1139.0,1288.0,1013.0,952.5,1096.0,1069.0,1147.0,1072.0,1060.75,1254.25,902.9565217391304,923.0,1172.0,1044.0,783.0,1253.5,1068.0,836.0,1119.0,1054.0,1108.0,997.0,1105.0
334,1681776335,983.0,1136.0,1291.0,1011.5,956.0,1101.0,1071.0,1139.0,1075.0,1064.2083333333333,1260.4583333333333,903.7826086956521,957.0,1090.0,1055.5,783.0,1253.0,1063.0,831.0,1122.5,1067.5,1107.0,1004.0,1087.0
335,1681776336,980.0,1127.5,1292.0,1010.0,970.0,1114.0,1073.0,1143.0,1078.0,1067.6666666666667,1266.6666666666667,904.6086956521739,956.6666666666666,1070.0,1067.0,790.0,1247.0,1065.5,828.0,1126.0,1081.0,1116.0,1002.0,1082.0
336,1681776337,978.0,1119.0,1295.0,1005.0,968.5,1127.0,1063.0,1147.0,1081.0,1071.125,1272.875,905.4347826086956,956.3333333333334,1058.0,1075.0,807.0,1228.0,1068.0,831.5,1132.0,1079.0,1128.0,1000.0,1088.0
337,1681776338,976.0,1103.0,1298.0,999.5,967.0,1155.0,1069.5,1142.0,1084.0,1074.5833333333333,1279.0833333333333,906.2608695652174,956.0,1060.0,1071.0,812.0,1220.5,1072.0,835.0,1136.0,1083.5,1140.0,1000.0,1094.0
338,1681776339,978.0,1100.0,1305.0,994.0,970.0,1164.5,1076.0,1144.0,1087.0,1078.0416666666667,1285.2916666666667,907.0869565217391,1002.0,1062.0,1073.0,817.0,1213.0,1057.0,833.0,1145.5,1088.0,1103.0,998.5,1122.0
339,1681776340,980.5,1097.0,1305.0,992.0,975.0,1174.0,1097.0,1143.5,1090.0,1081.5,1291.5,907.9130434782609,1026.5,1054.0,1075.0,835.0,1213.0,1046.0,832.0,1155.0,1091.0,1104.0,997.0,1113.5
340,1681776341,983.0,1064.0,1314.5,992.0,970.5,1184.0,1101.0,1143.0,1093.0,1084.9583333333333,1297.7083333333333,908.7391304347826,1051.0,1048.0,1090.0,841.0,1211.5,1035.0,831.0,1160.0,1082.0,1102.0,969.0,1105.0
341,1681776342,997.0,1041.0,1324.0,992.5,966.0,1181.5,1105.0,1172.0,1096.0,1088.4166666666667,1303.9166666666667,909.5652173913044,1043.0,1042.0,1082.0,840.5,1210.0,1013.0,835.0,1164.5,1073.0,1100.0,984.5,1107.0
342,1681776343,995.5,1041.0,1315.0,993.0,947.0,1179.0,1116.0,1158.5,1099.0,1091.875,1310.125,910.3913043478261,1071.0,1034.0,1088.5,840.0,1207.0,1011.0,840.0,1169.0,1059.0,1109.0,1000.0,1098.0
343,1681776344,994.0,1041.0,1306.0,982.0,946.5,1135.0,1092.0,1145.0,1102.0,1095.3333333333333,1316.3333333333333,911.2173913043479,1099.0,1031.0,1095.0,819.0,1205.0,1009.0,847.0,1190.0,1061.0,1123.5,998.0,1089.0
344,1681776345,993.0,1033.0,1297.0,964.5,946.0,1127.0,1091.5,1146.0,1105.0,1098.7916666666667,1322.5416666666667,912.0434782608696,1088.0,1028.0,1108.0,798.0,1203.0,1009.0,854.0,1193.5,1063.0,1138.0,999.5,1065.0
345,1681776346,1000.0,1034.5,1285.0,947.0,974.0,1119.0,1091.0,1159.5,1108.0,1102.25,1328.75,912.8695652173913,1087.4,1037.0,1121.0,777.0,1198.0,1009.0,863.5,1197.0,1079.0,1108.0,1001.0,1083.0
346,1681776347,1001.5,1036.0,1280.0,945.0,963.0,1105.0,1110.0,1173.0,1111.0,1105.7083333333333,1334.9583333333333,913.695652173913,1086.8,1038.391304347826,1118.2916666666667,777.48,1196.0,1017.0,873.0,1186.0,1076.0,1111.0,997.0,1101.0
347,1681776348,1003.0,1036.0,1273.0,950.5,952.0,1064.0,1129.0,1052.0,1114.0,1109.1666666666667,1341.1666666666667,914.5217391304348,1086.2,1039.7826086956522,1115.5833333333333,777.96,1194.0,1010.0,880.0,1169.0,1078.5,1114.0,996.0,1105.0
348,1681776349,1019.0,1026.0,1266.0,956.0,988.0,1073.0,1148.0,1061.0,1117.0,1112.625,1347.375,915.3478260869565,1085.6,1041.1739130434783,1112.875,778.44,1193.0,1003.0,875.0,1152.0,1081.0,1109.0,995.0,1102.5
349,1681776350,1026.0,1016.0,1255.0,965.0,973.5,1082.0,1130.0,1063.5,1120.0,1116.0833333333333,1353.5833333333333,916.1739130434783,1085.0,1042.5652173913043,1110.1666666666667,778.92,1192.0,996.0,868.5,1139.0,1087.0,1104.0,1000.0,1100.0
350,1681776351,1033.0,1056.0,1257.0,973.0,959.0,1086.0,1132.5,1066.0,1123.0,1119.5416666666667,1359.7916666666667,917.0,1084.4,1043.9565217391305,1107.4583333333333,779.4,1192.5,984.0,862.0,1150.0,1093.0,1108.0,1000.0,1078.0
351,1681776352,1030.0,1077.0,1259.0,973.5,946.0,1086.0,1135.0,1052.0,1126.0,1123.0,1366.0,921.0,1083.8,1045.3478260869565,1104.75,779.88,1193.0,984.0,858.0,1153.0,1098.5,1112.0,1008.0,1098.0
352,1681776353,1029.0,1079.5,1259.0,974.0,938.0,1086.0,1121.0,1056.0,1126.5,1131.5,1345.0,925.0,1083.2,1046.7391304347825,1102.0416666666667,780.36,1202.0,983.0,853.0,1156.0,1104.0,1113.0,1005.5,1105.0
353,1681776354,1028.0,1082.0,1265.0,993.0,943.0,1087.0,1107.0,1074.0,1127.0,1140.0,1339.5,947.0,1082.6,1048.1304347826087,1099.3333333333333,780.84,1211.5,982.0,848.0,1143.0,1098.0,1120.5,1003.0,1114.0
354,1681776355,1021.0,1079.0,1271.0,997.0,953.0,1084.0,1120.0,1073.0,1132.0,1162.0,1334.0,969.0,1082.0,1049.5217391304348,1096.625,781.32,1221.0,977.0,841.0,1125.0,1100.5,1128.0,1000.0,1123.0
355,1681776356,1027.0,1078.0,1294.0,1001.0,982.3333333333334,1081.0,1093.0,1053.0,1177.0,1164.0,1333.0,991.0,1081.4,1050.9130434782608,1093.9166666666667,781.8,1232.0,980.5,842.0,1107.0,1103.0,1103.0,996.0,1133.0
356,1681776357,1036.5,1077.0,1288.0,1003.0,1011.6666666666666,1086.0,1068.0,1059.0,1182.5,1166.0,1330.5,1011.0,1080.8,1052.304347826087,1091.2083333333333,782.28,1238.5,984.0,839.0,1091.0,1091.0,1146.0,992.0,1128.0
357,1681776358,1046.0,1082.0,1285.0,995.0,1041.0,1086.0,1068.5,1065.0,1188.0,1192.0,1328.0,1000.5,1080.2,1053.695652173913,1088.5,782.76,1245.0,980.0,836.0,1091.5,1086.0,1149.0,991.0,1123.0
358,1681776359,1050.0,1089.5,1282.0,996.5,1050.0,1074.0,1069.0,1051.0,1179.0,1197.0,1331.0,990.0,1079.6,1055.0869565217392,1085.7916666666667,783.24,1249.0,975.0,838.0,1092.0,1088.0,1152.0,993.0,1122.0
359,1681776360,1054.5,1097.0,1283.0,998.0,1045.5,1062.0,1073.0,1048.0,1170.0,1202.0,1365.0,973.0,1079.0,1056.4782608695652,1083.0833333333333,783.72,1244.5,970.0,840.0,1077.0,1090.0,1169.0,995.0,1129.5
360,1681776361,1059.0,1094.0,1276.5,1013.0,1041.0,1062.0,1086.5,1045.0,1161.0,1227.0,1352.0,956.0,1078.4,1057.8695652173913,1080.375,784.2,1240.0,981.0,843.0,1084.0,1096.0,1171.5,1000.0,1137.0
361,1681776362,1059.0,1094.5,1270.0,1005.0,1026.0,1068.0,1100.0,1061.0,1174.0,1230.5,1339.0,951.0,1077.8,1059.2608695652175,1077.6666666666667,784.68,1231.0,982.0,846.5,1091.0,1092.0,1174.0,1000.0,1129.0
362,1681776363,1062.0,1095.0,1271.0,997.0,1030.0,1074.0,1135.0,1055.5,1169.5,1234.0,1331.0,946.0,1077.2,1060.6521739130435,1074.9583333333333,785.16,1231.5,983.0,850.0,1085.0,1088.0,1156.0,999.5,1125.5
363,1681776364,1065.0,1100.0,1263.5,993.0,1030.5,1112.0,1160.0,1050.0,1165.0,1228.5,1336.0,973.0,1076.6,1062.0434782608695,1072.25,785.64,1232.0,976.0,857.0,1085.0,1087.0,1154.0,999.0,1122.0
364,1681776365,1069.0,1097.5,1256.0,985.0,1031.0,1095.5,1147.5,1079.0,1169.0,1223.0,1340.0,991.5,1076.0,1063.4347826086957,1069.5416666666667,786.12,1235.0,973.0,858.0,1085.0,1078.0,1152.0,1000.0,1158.0
365,1681776366,1065.0,1095.0,1254.0,977.0,1024.0,1079.0,1135.0,1066.0,1177.0,1215.0,1344.0,1010.0,1075.4,1064.8260869565217,1066.8333333333333,786.6,1238.0,970.0,859.0,1102.0,1069.0,1151.0,997.5,1166.0
366,1681776367,1061.0,1113.0,1253.5,965.0,1020.0,1105.0,1142.0,1053.0,1183.5,1207.0,1353.0,1040.0,1074.8,1066.2173913043478,1064.125,787.08,1241.0,979.0,867.0,1102.5,1064.5,1164.0,995.0,1174.0
367,1681776368,1076.0,1052.0,1253.0,971.0,1006.5,1119.0,1149.0,1039.0,1190.0,1206.5,1346.0,1048.0,1074.2,1067.608695652174,1061.4166666666667,787.56,1243.0,988.5,867.0,1103.0,1060.0,1169.0,997.0,1129.0
368,1681776369,1081.0,1033.5,1248.0,977.0,993.0,1124.5,1156.0,1048.0,1197.0,1206.0,1356.0,1053.0,1073.6,1069.0,1058.7083333333333,788.04,1248.5,998.0,868.0,1109.0,1048.0,1174.0,1000.0,1174.0
369,1681776370,1086.0,1015.0,1257.5,993.0,997.0,1130.0,1177.0,1031.5,1205.0,1206.0,1366.0,1058.0,1073.0,1070.0,1056.0,788.52,1254.0,997.0,869.0,1101.5,1036.0,1140.0,1001.5,1142.0
370,1681776371,1096.0,1026.0,1267.0,971.5,998.0,1145.0,1135.0,1015.0,1202.0,1206.0,1346.0,1092.0,1071.0,1071.0,1061.0,789.0,1281.0,982.0,868.3333333333334,1094.0,1062.0,1143.72,1003.0,1110.0
371,1681776372,1105.0,1041.0,1258.0,950.0,999.0,1149.0,1083.0,1053.0,1199.0,1190.0,1342.5,1086.0,1075.0,1069.5,1066.0,788.0,1297.0,979.0,867.6666666666666,1094.0,1062.3333333333333,1147.44,1002.2631578947369,1108.2222222222222
372,1681776373,1114.0,1056.0,1245.0,944.0,1035.0,1153.0,1031.0,1052.0,1190.0,1176.0,1339.0,1080.0,1079.0,1068.0,1074.0,748.5,1284.0,976.0,867.0,1125.0,1062.6666666666667,1151.16,1001.5263157894736,1106.4444444444443
373,1681776374,1123.0,1052.0,1240.5,932.0,1025.375,1154.0,1020.0,1051.0,1188.5,1162.0,1352.0,994.0,1080.0,1107.0,1071.5,709.0,1271.0,973.0,866.5,1155.0,1063.0,1154.88,1000.7894736842105,1104.6666666666667
374,1681776375,1114.0,1031.0,1236.0,950.5,1015.75,1150.0,1020.1666666666666,1052.0,1187.0,1142.0,1341.5,975.0,1083.5,1092.0,1069.0,786.0,1221.0,973.0,866.0,1143.5,1063.3333333333333,1158.6,1000.0526315789474,1102.888888888889
375,1681776376,1107.6666666666667,1044.0,1228.0,969.0,1006.125,1151.3333333333333,1020.3333333333334,1056.0,1181.0,1140.0,1331.0,956.0,1087.0,1077.0,1079.0,782.0,1178.0,973.0,866.3333333333334,1132.0,1063.6666666666667,1162.32,999.3157894736842,1101.111111111111
376,1681776377,1101.3333333333333,1057.0,1219.0,958.0,996.5,1152.6666666666667,1020.5,1060.0,1185.5,1138.0,1294.0,958.0,1086.0,1079.0,1086.0,778.0,1165.5,983.0,866.6666666666666,1145.0,1064.0,1166.04,998.578947368421,1099.3333333333333
377,1681776378,1095.0,1072.0,1208.5,945.0,986.875,1154.0,1020.6666666666666,1064.0,1190.0,1130.0,1274.0,970.5,1085.0,1103.5,1093.0,765.0,1153.0,995.0,867.0,1153.0,1064.3333333333333,1169.76,997.8421052631579,1097.5555555555557
378,1681776379,1108.0,1086.0,1198.0,932.0,977.25,1155.3333333333333,1020.8333333333334,1068.0,1183.0,1133.0,1254.0,983.0,1080.0,1128.0,1106.0,765.0,1133.0,999.0,878.0,1161.0,1064.6666666666667,1173.48,997.1052631578947,1095.7777777777778
379,1681776380,1108.5,1100.0,1197.0,919.0,967.625,1156.6666666666667,1021.0,1072.0,1191.0,1136.0,1257.0,1002.0,1053.0,16392.0,1103.5,765.0,1128.0,1000.0,889.0,1201.0,1065.0,1177.2,996.3684210526316,1094.0
380,1681776381,1109.0,1122.0,1199.5,897.0,958.0,1158.0,1032.3333333333333,1076.0,1191.0,1139.0,1282.0,988.0,1051.0,1120.0,1101.0,761.0,1128.0,1001.0,892.6666666666666,1184.0,1065.3333333333333,1180.92,995.6315789473684,1092.2222222222222
381,1681776382,1082.0,1130.5,1202.0,902.5,900.0,1170.0,1043.6666666666667,1073.0,1191.0,1146.0,1284.5,937.0,1049.0,1123.5,1121.0,766.0,1135.0,984.0,896.3333333333334,1140.0,1065.6666666666667,1184.64,994.8947368421053,1090.4444444444443
382,1681776383,1074.0,1139.0,1198.0,908.0,982.0,1170.0,1055.0,1071.0,1205.0,1157.0,1287.0,930.0,1040.0,1127.0,1109.0,763.5,1138.0,975.0,900.0,1124.5,1066.0,1188.36,994.1578947368421,1088.6666666666667
383,1681776384,1066.0,1130.0,1203.0,887.0,981.5,1170.0,1055.0,1069.0,1198.0,1168.0,1270.0,923.0,1033.0,1119.0,1097.0,761.0,1141.0,971.0,901.0,1109.0,1066.3333333333333,1192.08,993.421052631579,1086.888888888889
384,1681776385,1079.0,1108.0,1208.0,883.0,981.0,1179.0,1059.0,1051.0,1191.0,1179.0,1268.0,903.0,1026.0,1105.5,1089.0,761.0,1147.0,972.0,902.0,1070.0,1066.6666666666667,1195.8,992.6842105263158,1085.111111111111
385,1681776386,1085.5,1105.0,1217.0,879.0,996.0,1166.0,1063.0,1059.5,1192.0,1193.0,1266.0,898.5,1026.0,1092.0,1073.0,759.0,1151.0,973.0,897.5,1060.0,1067.0,1199.52,991.9473684210526,1083.3333333333333
386,1681776387,1092.0,1102.0,1212.0,881.0,997.0,1153.0,1090.0,1068.0,1192.0,1202.5,1270.0,894.0,1030.5,1082.0,1057.0,757.0,1155.0,978.0,893.0,1060.0,1067.3333333333333,1203.24,991.2105263157895,1081.5555555555557
387,1681776388,1108.0,1092.5,1207.0,867.5,998.0,1158.0,1086.5,1058.0,1192.0,1212.0,1282.5,836.0,1035.0,1094.5,1017.0,758.0,1156.0,988.0,895.6666666666666,1060.0,1067.6666666666667,1206.96,990.4736842105264,1079.7777777777778
388,1681776389,1096.5,1083.0,1204.0,854.0,975.0,1162.0,1083.0,1066.5,1206.0,1217.0,1295.0,835.0,1034.0,1107.0,1024.5,759.0,1152.0,986.0,898.3333333333334,1066.0,1068.0,1210.68,989.7368421052631,1078.0
389,1681776390,1085.0,1099.0,1205.5,865.0,974.5,1166.0,1085.0,1075.0,1209.0,1222.0,1317.0,834.0,1033.5,1104.0,1032.0,761.0,1149.0,984.0,901.0,1068.0,1068.3333333333333,1214.4,989.0,1076.7142857142858
390,1681776391,1061.0,1086.0,1207.0,866.0,974.0,1136.5,1072.3333333333333,1077.0,1212.0,1227.0,1318.0,827.0,1033.0,1104.0,1030.0,760.5,1146.0,984.0,915.5,1095.0,1068.6666666666667,1218.12,988.8333333333334,1075.4285714285713
391,1681776392,1057.5,1088.0,1211.0,867.0,956.0,1107.0,1059.6666666666667,1182.0,1215.0,1245.0,1319.0,827.5,1040.0,1104.0,1030.0,760.0,1142.0,991.0,930.0,1100.5,1069.0,1221.84,988.6666666666666,1074.142857142857
392,1681776393,1054.0,1090.0,1221.5,871.0,952.0,1126.0,1047.0,1191.0,1219.0,1257.0,1311.0,828.0,1033.0,1131.0,1030.0,757.0,1142.0,998.0,932.5,1106.0,1069.3333333333333,1225.56,988.5,1072.857142857143
393,1681776394,1071.0,1108.0,1232.0,872.0,944.0,1145.0,1039.0,1179.5,1224.0,1269.0,1298.0,825.0,1026.0,1124.0,1027.0,761.0,1143.5,1005.0,935.0,1109.0,1069.6666666666667,1229.28,988.3333333333334,1071.5714285714287
394,1681776395,1096.0,1109.0,1237.0,873.0,936.0,1130.0,1029.0,1168.0,1229.0,1247.5,1285.0,838.0,1039.5,1117.0,1026.0,765.0,1145.0,998.6666666666666,932.0,1095.5,1070.0,1233.0,988.1666666666666,1070.2857142857142
395,1681776396,1106.0,1110.0,1239.0,897.0,933.0,1133.5,1019.0,1189.0,1255.0,1226.0,1272.0,832.0,1053.0,1136.0,1026.0,756.0,1151.0,992.3333333333334,933.0,1082.0,1068.0,1219.5,988.0,1069.0
396,1681776397,1116.0,1128.0,1238.0,895.0,942.0,1137.0,1019.0,1173.5,1261.0,1221.5,1251.0,826.0,1050.5,1117.5,1026.0,689.0,1151.0,986.0,925.5,1085.0,1089.0,1206.0,992.0,1082.0
397,1681776398,1064.0,1131.0,1237.0,893.0,916.0,1066.0,1046.0,1158.0,1267.0,1217.0,1270.0,824.0,1048.0,1099.0,1025.0,726.5,1153.0,987.0,918.0,1094.0,1110.0,1208.0,996.0,1080.0
398,1681776399,1037.5,1134.0,1236.5,873.0,930.0,1060.0,1044.0,1161.0,1211.0,1214.0,1289.0,826.5,1049.0,1104.0,1021.0,764.0,1155.0,981.0,914.0,1103.0,1120.5,1207.0,995.0,1078.0
399,1681776400,1011.0,1105.0,1236.0,871.5,951.0,1067.0,1037.0,1121.0,1207.0,1220.5,1248.0,829.0,1048.0,1099.5,1017.0,804.0,1157.5,975.0,910.5,1109.0,1131.0,1206.0,991.5,1080.0
400,1681776401,965.0,1104.5,1245.0,870.0,945.0,1085.0,1060.0,1163.0,1203.0,1227.0,1233.0,839.0,1047.0,1095.0,1025.0,806.0,1160.0,981.0,907.0,1103.0,988.0,1206.0,988.0,1079.5
401,1681776402,947.5,1104.0,1247.5,873.0,944.0,1131.0,1060.0,1133.0,1165.0,1204.0,1218.0,849.0,1088.0,1103.0,1026.5,808.0,1164.0,977.0,909.0,1097.0,1066.0,1232.5,990.0,1079.0
402,1681776403,930.0,1107.0,1250.0,876.0,943.0,1113.0,1084.5,1137.0,1154.0,1223.5,1214.0,859.0,1075.5,1117.0,1028.0,815.0,1167.0,973.0,914.5,1083.0,1082.0,1259.0,992.5,1109.0
403,1681776404,914.0,1109.5,1256.0,879.0,954.0,1095.0,1109.0,1150.0,1162.0,1243.0,1191.0,861.0,1063.0,1123.0,1041.0,822.0,1169.5,973.0,920.0,1090.0,1098.0,1284.0,995.0,1105.0
404,1681776405,919.5,1112.0,1257.0,875.0,922.5,1127.0,1114.0,1163.0,1170.0,1258.0,1184.5,850.0,1048.0,1129.0,1058.0,829.0,1172.0,976.5,941.0,1097.0,1073.0,1282.5,998.0,1101.0
405,1681776406,925.0,1106.0,1262.0,875.0,891.0,1157.0,1093.5,1143.0,1205.0,1257.0,1178.0,839.0,1043.5,1102.5,1075.0,838.0,1199.0,980.0,931.5,1083.0,1064.0,1281.0,1004.5,1281.0
406,1681776407,937.0,1088.5,1267.0,875.0,944.0,1161.0,1073.0,1140.0,1219.0,1256.0,1177.0,839.0,1039.0,1076.0,1043.0,872.0,1208.5,975.0,922.0,1078.0,1055.0,1291.0,1011.0,1195.5
407,1681776408,943.0,1071.0,1267.0,901.0,962.0,1165.0,1031.0,1117.0,1233.0,1228.0,1175.5,865.0,1027.0,1019.0,1062.0,906.0,1218.0,975.5,893.0,1073.0,1049.0,1263.0,1008.0,1110.0
408,1681776409,949.0,1045.0,1270.0,889.0,980.0,1166.0,1040.0,1094.0,1199.0,1171.0,1174.0,881.5,1024.5,978.0,1081.0,959.0,1224.0,976.0,885.5,1083.0,1065.5,1235.0,995.0,1136.0
409,1681776410,965.0,1047.0,1273.0,888.0,943.0,1177.5,1049.0,1082.0,1201.5,1149.5,1178.0,898.0,1022.0,990.5,1149.0,942.0,1228.5,977.0,878.0,1097.0,1082.0,1195.0,1003.0,1129.5
410,1681776411,975.0,1049.0,1284.0,887.0,932.0,1189.0,995.0,1083.0,1204.0,1128.0,1190.5,1024.0,1018.0,1003.0,1161.0,925.0,1233.0,976.5,884.0,1100.5,1052.0,1179.5,1011.0,1123.0
411,1681776412,985.0,1046.0,1297.0,876.0,952.0,1211.0,980.0,1084.0,1224.0,1154.0,1203.0,1040.5,1032.0,1003.0,1173.0,908.0,1245.0,976.0,888.5,1104.0,1054.0,1164.0,1000.0,1122.0
412,1681776413,995.0,1064.0,1302.0,878.5,972.0,1184.5,972.5,1105.0,1229.0,1147.0,1268.0,1057.0,1046.0,1003.0,1173.0,16392.0,1254.0,972.0,893.0,1101.0,1056.0,1144.0,998.0,1131.0
413,1681776414,1006.0,1074.5,1307.0,881.0,917.0,1158.0,965.0,1113.5,1234.0,1140.0,1320.5,1071.0,1073.0,1003.0,1158.0,8613.5,1263.0,970.0,918.0,1089.0,1053.0,1106.0,996.0,1093.5
414,1681776415,1011.0,1085.0,1315.0,890.0,916.0,1145.0,971.0,1122.0,1246.0,1112.0,1373.0,1088.0,1079.5,965.0,1134.0,835.0,1253.0,971.5,919.5,1077.0,1056.0,1147.0,1000.0,1056.0
415,1681776416,1016.0,1100.0,1312.0,898.0,915.0,1142.5,973.0,1140.0,1231.0,1103.6666666666667,1390.0,1105.0,1086.0,971.5,1110.0,834.0,1249.0,973.0,921.0,1082.0,1059.0,1188.0,1004.5,1133.0
416,1681776417,1020.0,1080.0,1309.0,900.0,938.0,1140.0,975.0,1117.5,1216.0,1095.3333333333333,1392.0,1139.0,1089.0,978.0,1137.0,836.0,1245.0,981.0,949.0,1091.0,1050.0,1212.0,1009.0,1158.5
417,1681776418,1028.0,1064.0,1323.0,902.0,948.5,1102.0,977.5,1095.0,1202.0,1087.0,1394.0,1122.0,1018.0,966.0,1153.3333333333333,838.0,1244.0,989.5,960.5,1100.0,1056.5,1220.0,1024.0,1184.0
418,1681776419,1036.0,1048.0,1322.5,892.0,959.0,1020.0,980.0,1117.0,1184.0,1080.0,1396.0,1121.5,994.0,974.0,1169.6666666666667,818.0,1244.0,998.0,972.0,1126.0,1063.0,1228.0,1015.0,1166.0
419,1681776420,1038.0,1033.0,1322.0,903.0,942.0,1064.0,986.0,1107.0,1185.0,1073.5,1424.0,1121.0,970.0,977.0,1186.0,786.0,1244.0,1009.0,978.0,1131.0,1006.0,1225.0,1006.0,1183.5
420,1681776421,1032.0,1020.0,1318.5,914.0,964.0,1097.0,992.0,1115.0,1186.0,1067.0,1443.0,1131.0,968.0,980.0,1192.5,800.0,1234.0,1007.0,969.0,1136.0,1066.3333333333333,1242.0,1000.0,1201.0
421,1681776422,1038.0,1030.5,1315.0,934.0,944.0,1107.0,998.0,1105.0,1188.5,1075.0,1462.0,1097.0,954.0,952.0,1199.0,811.5,1234.0,1005.0,960.0,1072.0,1126.6666666666667,1227.5,1000.0,1206.0
422,1681776423,1044.0,1041.0,1299.5,955.0,945.5,1117.0,983.0,1095.0,1191.0,1076.0,1478.0,1086.5,976.0,984.0,1177.0,823.0,1234.0,1010.0,918.0,1058.0,1187.0,1213.0,1000.5,1202.0
423,1681776424,1061.0,1043.0,1284.0,967.5,947.0,1114.0,988.5,1088.0,1167.0,1084.0,1474.0,1076.0,998.0,980.5,1155.0,828.0,1220.0,1026.5,907.5,1044.0,1160.0,1152.0,1001.0,1214.5
424,1681776425,1067.0,1049.0,1227.0,980.0,952.5,1098.0,994.0,1092.5,1174.0,1092.0,1484.5,1083.0,966.0,977.0,1156.0,822.5,1211.5,1043.0,897.0,1031.0,1137.0,1158.0,1007.0,1227.0
425,1681776426,1041.5,1055.0,1229.0,984.0,958.0,1102.0,1000.0,1097.0,1181.0,1099.0,1495.0,1100.0,968.0,980.0,1167.5,817.0,1203.0,1106.0,898.0,1030.5,1136.5,1164.0,1001.0,1217.0
426,1681776427,1016.0,1059.0,1231.0,989.5,965.0,1088.0,1006.0,1086.0,1134.0,1095.5,1457.0,1117.0,970.0,988.0,1179.0,848.0,1179.0,1112.0,898.0,1030.0,1136.0,1152.0,1013.5,1200.5
427,1681776428,986.0,1045.0,1254.0,995.0,976.0,1074.0,991.0,1084.5,1128.5,1092.0,1417.0,1119.0,955.0,996.0,1186.0,841.0,1179.5,1118.0,905.5,1031.0,1107.0,1151.5,1026.0,1184.0
428,1681776429,985.5,1031.0,1304.0,1013.0,987.0,1041.0,989.0,1083.0,1123.0,1107.0,1409.5,1109.0,970.0,1010.0,1168.5,834.0,1180.0,1143.0,913.0,1042.0,1101.0,1151.0,1022.0,1164.0
429,1681776430,985.0,1021.0,1326.5,1019.0,972.0,1043.5,987.0,1094.0,1127.0,1104.0,1402.0,1099.0,960.5,1019.0,1151.0,810.0,1190.0,1122.0,917.0,1053.0,1095.0,1138.0,1023.5,1164.0
430,1681776431,999.0,1028.5,1349.0,1025.0,956.0,1046.0,1017.0,1088.0,1128.0,1101.0,1387.0,1075.0,951.0,1028.0,1138.0,814.5,1193.0,1101.0,914.0,1066.0,1090.0,1144.5,1025.0,1164.0
431,1681776432,1016.0,1036.0,1324.0,1022.0,966.5,1034.0,1011.5,1082.0,1129.0,1048.0,1262.0,1106.0,941.0,1019.0,1135.5,819.0,1195.0,1087.0,911.0,1081.0,1099.5,1151.0,1023.0,1219.0
432,1681776433,1033.0,1028.0,1329.5,1006.0,977.0,1031.5,1006.0,1096.0,1146.0,1061.5,1137.0,1137.0,948.5,1017.0,1133.0,838.0,1197.0,1097.0,900.0,1087.0,1109.0,1161.0,1027.0,1219.0
433,1681776434,1008.0,1017.0,1335.0,996.0,932.0,1029.0,1010.0,1098.0,1148.5,1075.0,1097.0,1097.0,956.0,1017.0,1135.0,848.0,1215.0,1107.0,892.5,1093.0,1133.0,1162.5,1031.0,1209.0
434,1681776435,1015.0,1015.0,1333.0,986.0,1025.0,1031.0,1010.0,1100.0,1151.0,1085.0,1225.0,1087.0,954.0,1017.0,1111.5,858.0,1213.0,1134.0,885.0,1083.0,1137.5,1164.0,1044.0,1199.0
435,1681776436,1022.0,1013.0,1335.5,1004.0,980.0,1022.0,1010.0,1112.0,1149.0,1085.0,1353.0,1092.0,959.5,1028.0,1088.0,871.0,1211.0,1120.0,843.0,1068.0,1142.0,1162.0,1041.5,1145.0
436,1681776437,1046.0,1044.0,1338.0,1026.5,935.0,1027.5,1003.5,1093.0,1150.0,1085.0,1366.0,1097.0,965.0,1031.5,1161.0,16392.0,1206.0,1106.0,835.0,1058.5,1153.0,1158.0,1039.0,1154.0
437,1681776438,1035.0,1046.0,1335.0,1049.0,954.0,1033.0,997.0,1094.0,1151.0,1090.0,1355.0,1060.0,968.0,1035.0,1157.0,8603.5,1207.0,1094.0,819.0,1049.0,1144.0,1162.0,1051.0,1163.0
438,1681776439,1028.5,1048.0,1311.5,1053.0,962.0,1037.0,994.0,1095.0,1183.0,1079.0,1344.0,1020.0,1001.0,999.0,1149.0,815.0,1207.5,1082.0,824.0,1036.0,1135.0,1166.0,1051.0,1153.0
439,1681776440,1022.0,1033.0,1288.0,1057.0,970.0,961.0,996.3333333333334,1091.0,1168.0,1072.5,1344.0,980.0,1034.0,1007.0,1141.0,804.0,1208.0,1071.0,829.0,1034.5,1118.0,1175.0,1051.0,1144.5
440,1681776441,999.0,1038.5,1217.0,1061.0,956.0,1025.0,998.6666666666666,1079.0,1153.0,1066.0,1332.0,973.0,988.0,1015.0,1155.0,804.0,1202.0,1068.0,836.0,1033.0,1143.0,1179.5,1070.0,1136.0
441,1681776442,1002.5,1044.0,1212.0,1046.0,974.0,1039.5,1001.0,1103.0,1141.0,1103.0,1320.0,963.0,987.0,1010.0,1159.5,804.0,1203.0,1065.0,843.0,1044.0,1148.6666666666667,1184.0,1085.5,1132.0
442,1681776443,1006.0,1048.0,1207.0,1016.0,947.5,1054.0,995.0,1127.0,1128.5,1107.5,1338.0,953.0,986.0,1010.5,1164.0,838.0,1204.0,1059.0,855.0,1040.0,1154.3333333333333,1191.0,1101.0,1138.0
443,1681776444,1022.0,1047.0,1215.0,986.0,921.0,1036.0,989.0,1070.0,1116.0,1112.0,1352.0,962.0,991.0,1011.0,1186.0,804.0,1224.0,1059.5,855.0,1036.0,1160.0,1213.0,1119.0,1153.5
444,1681776445,1038.0,1046.0,1217.0,968.0,942.0,1034.5,983.0,1085.0,1104.0,1110.0,1366.0,966.5,996.0,1046.0,1192.5,794.0,1213.0,1060.0,856.0,1042.0,1160.0,1235.0,1140.0,1169.0
445,1681776446,1060.0,1042.0,1219.0,981.5,932.0,1033.0,988.0,1100.0,1107.0,1099.0,1343.0,971.0,1015.5,1003.0,1199.0,784.0,1202.0,1056.0,857.0,1046.0,1160.0,1212.0,1140.0,1164.0
446,1681776447,1060.0,1040.5,1231.0,995.0,922.0,1039.0,982.0,1088.0,1118.5,1088.0,1346.0,997.0,1035.0,1011.5,1248.0,789.0,1180.0,1058.5,855.0,1050.0,1184.0,1240.0,1140.0,1169.5
447,1681776448,1060.0,1039.0,1240.0,997.5,913.0,1041.3333333333333,976.0,1096.0,1130.0,1084.0,1349.0,1001.3333333333334,1022.5,1020.0,1235.5,788.3333333333334,1173.5,1061.0,852.0,1055.5,1167.3333333333333,1268.0,1121.0,1175.0
448,1681776449,1039.0,1048.0,1249.0,1000.0,916.0,1043.6666666666667,984.6666666666666,1104.0,1127.0,1080.0,1347.0,1005.6666666666666,1010.0,1024.3333333333333,1223.0,787.6666666666666,1167.0,1077.6666666666667,849.0,1061.0,1150.6666666666667,1268.0,1102.0,1171.6666666666667
449,1681776450,1018.0,1057.0,1258.0,1000.3333333333334,919.0,1046.0,993.3333333333334,1099.6666666666667,1124.0,1082.0,1345.0,1010.0,1018.0,1028.6666666666667,1213.75,787.0,1166.5,1094.3333333333333,846.0,1058.0,1134.0,1268.0,1116.6666666666667,1168.3333333333333
450,1681776451,1015.6,1066.0,1262.3333333333333,1000.6666666666666,922.0,1042.3333333333333,1002.0,1095.3333333333333,1121.0,1084.0,1346.0,1057.5,1026.0,1033.0,1204.5,801.5,1166.0,1111.0,842.0,1055.0,1134.3333333333333,1266.8,1131.3333333333333,1165.0
451,1681776452,1013.2,1062.6,1266.6666666666667,1001.0,920.75,1038.6666666666667,1000.875,1091.0,1124.25,1086.0,1347.0,1105.0,1034.0,1031.75,1195.25,816.0,1165.5,1120.6,838.0,1052.0,1134.6666666666667,1265.6,1146.0,1165.6
452,1681776453,1010.8,1059.2,1271.0,1000.5,919.5,1035.0,999.75,1093.4,1127.5,1088.0,1348.0,1104.1666666666667,1028.0,1030.5,1186.0,830.5,1165.0,1130.2,834.0,1055.4,1135.0,1264.4,1147.5,1166.2
453,1681776454,1008.4,1055.8,1273.1666666666667,1000.0,918.25,1035.2,998.625,1095.8,1130.75,1090.0,1355.6666666666667,1103.3333333333333,1022.0,1029.25,1172.2,845.0,1162.6,1139.8,830.0,1058.8,1139.8333333333333,1263.2,1149.0,1166.8
454,1681776455,1006.0,1052.4,1275.3333333333333,999.5,917.0,1035.4,997.5,1098.2,1134.0,1092.0,1363.3333333333333,1102.5,1016.0,1028.0,1158.4,833.2,1160.2,1149.4,830.0,1062.2,1144.6666666666667,1262.0,1150.5,1167.4
455,1681776456,1002.2,1049.0,1277.5,999.0,918.2,1035.6,996.375,1100.6,1133.4,1094.0,1371.0,1101.6666666666667,1010.0,1032.1666666666667,1144.6,821.4,1157.8,1159.0,830.0,1065.6,1149.5,1260.0,1152.0,1168.0
456,1681776457,998.4,1042.2,1279.6666666666667,998.5,919.4,1035.8,995.25,1103.0,1132.8,1095.4,1378.6666666666667,1100.8333333333333,1004.0,1036.3333333333333,1130.8,809.6,1155.4,1162.6,830.0,1069.0,1154.3333333333333,1258.0,1153.5,1174.4
457,1681776458,994.6,1035.4,1281.8333333333333,998.0,920.6,1036.0,994.125,1103.6,1132.2,1096.8,1386.3333333333333,1100.0,1002.4,1040.5,1117.0,797.8,1153.0,1166.2,830.0,1071.6,1159.1666666666667,1256.0,1155.0,1180.8
458,1681776459,990.8,1028.6,1284.0,998.6,921.8,1030.6,993.0,1104.2,1131.6,1098.2,1394.0,1093.5,1000.8,1044.6666666666667,1119.0,786.0,1151.0,1169.8,830.0,1074.2,1164.0,1254.0,1157.4,1187.2
459,1681776460,987.0,1021.8,1286.0,999.2,923.0,1025.2,992.4,1104.8,1131.0,1099.6,1398.0,1087.0,999.2,1048.8333333333333,1121.0,785.3333333333334,1149.0,1173.4,830.0,1076.8,1161.8,1252.0,1159.8,1193.6
460,1681776461,988.6,1015.0,1288.0,999.8,924.6666666666666,1019.8,991.8,1105.4,1128.0,1101.0,1402.0,1080.5,997.6,1053.0,1123.0,784.6666666666666,1147.0,1177.0,829.4,1079.4,1159.6,1250.0,1162.2,1200.0
461,1681776462,990.2,1013.8571428571429,1290.0,1000.4,926.3333333333334,1014.4,991.2,1106.0,1125.0,1096.3333333333333,1406.0,1074.0,996.0,1054.6666666666667,1125.0,784.0,1145.0,1170.8333333333333,828.8,1082.0,1157.4,1248.0,1164.6,1186.857142857143
462,1681776463,991.8,1012.7142857142857,1292.0,1001.0,928.0,1009.0,990.6,1108.6666666666667,1122.0,1091.6666666666667,1410.0,1078.5714285714287,993.0,1056.3333333333333,1127.0,783.3333333333334,1143.0,1164.6666666666667,828.2,1081.2857142857142,1155.2,1246.0,1167.0,1173.7142857142858
463,1681776464,993.4,1011.5714285714286,1294.0,1000.5,929.6666666666666,1010.8333333333334,990.0,1111.3333333333333,1119.0,1087.0,1414.0,1083.142857142857,990.0,1058.0,3671.1666666666665,782.6666666666666,1142.142857142857,1158.5,827.6,1080.5714285714287,1153.0,1244.0,1166.5,1160.5714285714287
464,1681776465,995.0,1010.4285714285714,1301.5,1000.0,931.3333333333334,1012.6666666666666,989.8333333333334,1114.0,1116.0,1082.3333333333333,1405.5,1087.7142857142858,987.0,1059.6666666666667,6215.333333333333,782.0,1141.2857142857142,1152.3333333333333,827.0,1079.857142857143,1152.0,1242.0,1166.0,1147.4285714285713
465,1681776466,991.1666666666666,1009.2857142857143,1309.0,999.5,933.0,1014.5,989.6666666666666,1116.6666666666667,1157.1666666666667,1077.6666666666667,1397.0,1092.2857142857142,984.0,1061.3333333333333,8759.5,779.0,1140.4285714285713,1146.1666666666667,827.1666666666666,1079.142857142857,1151.0,1241.3333333333333,1165.5,1134.2857142857142
466,1681776467,987.3333333333334,1008.1428571428571,1316.5,999.0,930.8,1016.3333333333334,989.5,1119.3333333333333,1198.3333333333333,1073.0,1388.5,1096.857142857143,981.0,1063.0,11303.666666666666,776.0,1139.5714285714287,1140.0,827.3333333333334,1078.4285714285713,1150.0,1240.6666666666667,1165.0,1121.142857142857
467,1681776468,983.5,1007.0,1324.0,998.5,928.6,1018.1666666666666,989.3333333333334,1122.0,1239.5,1078.0,1380.0,1101.4285714285713,978.0,1064.4,13847.833333333332,773.0,1138.7142857142858,1137.8,827.5,1077.7142857142858,1149.0,1240.0,1164.5,1108.0
468,1681776469,979.6666666666666,1004.5,1331.5,998.0,926.4,1020.0,989.1666666666666,1128.5,1280.6666666666667,1083.0,1371.5,1106.0,975.0,1065.8,16392.0,770.0,1137.857142857143,1135.6,827.6666666666666,1077.0,1148.0,1239.3333333333333,1164.0,1111.0
469,1681776470,975.8333333333334,1002.0,1339.0,993.5,924.2,1019.75,989.0,1135.0,1321.8333333333333,1088.0,1363.0,1098.5,970.25,1067.2,13336.8,767.0,1137.0,1133.4,827.8333333333334,1082.25,1147.0,1238.6666666666667,1174.75,1114.0
470,1681776471,972.0,999.5,1334.0,989.0,922.0,1019.5,988.2,1141.5,1363.0,1093.0,1357.4,1091.0,965.5,1068.6,10281.6,768.3333333333334,1137.4,1131.2,828.0,1087.5,1145.25,1238.0,1185.5,1117.0
471,1681776472,967.2,997.0,1329.0,984.5,921.0,1019.25,987.4,1148.0,1317.6,1098.0,1351.8,1083.5,960.75,1070.0,7226.4000000000015,769.6666666666666,1137.8,1129.0,830.6,1092.75,1143.5,1238.2,1196.25,1120.0
472,1681776473,962.4,1002.0,1324.0,980.0,920.0,1019.0,986.6,1152.6,1272.2,1102.8,1346.2,1076.0,956.0,1069.2,4171.200000000001,771.0,1138.2,1122.4827586206898,833.2,1098.0,1141.75,1238.4,1207.0,1121.2
473,1681776474,957.6,1007.0,1319.0,979.5,919.0,1019.8333333333334,985.8,1157.2,1226.8,1107.6,1340.6,1065.1666666666667,959.8,1068.4,1116.0,772.3333333333334,1138.6,1115.9655172413793,835.8,1101.5714285714287,1140.0,1238.6,1191.3333333333333,1122.4
474,1681776475,952.8,1012.0,1314.0,979.0,918.0,1020.6666666666666,985.0,1161.8,1181.4,1112.4,1335.0,1054.3333333333333,963.6,1067.6,1114.3333333333333,773.6666666666666,1139.0,1109.448275862069,838.4,1105.142857142857,1137.6666666666667,1238.8,1175.6666666666667,1123.6
475,1681776476,948.0,1017.0,1313.0,978.5,917.0,1021.5,984.8,1166.4,1136.0,1117.2,1338.0,1043.5,967.4,1066.8,1112.6666666666667,775.0,1140.64,1102.9310344827586,841.0,1108.7142857142858,1135.3333333333333,1239.0,1160.0,1124.8
476,1681776478,946.4,1022.0,1312.0,978.0,917.125,1022.3333333333334,984.6,1171.0,1131.6,1122.0,1341.0,1032.6666666666667,971.2,1066.0,1111.0,780.75,1142.28,1096.4137931034484,844.9166666666666,1112.2857142857142,1133.0,1235.8,1144.3333333333333,1126.0
477,1681776479,944.8,1018.0,1311.0,977.5,917.25,1023.1666666666666,984.4,1158.5,1127.2,1123.125,1344.0,1021.8333333333334,975.0,1056.6,1109.3333333333333,786.5,1143.92,1089.896551724138,848.8333333333334,1115.857142857143,1130.6666666666667,1232.6,1128.6666666666667,1125.4
478,1681776480,943.2,1014.0,1310.0,977.0,917.375,1024.0,984.2,1146.0,1122.8,1124.25,1347.0,1011.0,976.75,1047.2,1107.6666666666667,792.25,1145.56,1083.3793103448277,852.75,1119.4285714285713,1128.3333333333333,1229.4,1113.0,1124.8
479,1681776481,941.6,1010.0,1309.0,971.75,917.5,1020.0,984.0,1133.5,1118.4,1125.375,1350.0,1014.3333333333334,978.5,1037.8,1106.0,798.0,1147.2,1076.8620689655172,856.6666666666666,1123.0,1126.0,1226.2,1104.5,1124.2
480,1681776482,940.0,1006.0,1311.0,966.5,917.625,1016.0,985.3333333333334,1121.0,1114.0,1126.5,1350.6666666666667,1017.6666666666666,980.25,1028.4,1116.0,796.5,1148.84,1070.344827586207,860.5833333333334,1126.5714285714287,1126.0,1223.0,1096.0,1123.6
481,1681776483,944.0,1002.0,1313.0,961.25,917.75,1012.0,986.6666666666666,1110.75,1114.6666666666667,1127.625,1351.3333333333333,1021.0,982.0,1019.0,1126.0,795.0,1150.48,1063.8275862068965,864.5,1130.142857142857,1126.0,1222.75,1087.5,1123.0
482,1681776484,948.0,994.0,1315.0,956.0,917.875,1014.0,988.0,1100.5,1115.3333333333333,1128.75,1352.0,1017.0,973.0,1016.6666666666666,1136.0,793.5,1152.12,1057.3103448275863,868.4166666666666,1133.7142857142858,1126.0,1222.5,1079.0,1155.3333333333333
483,1681776485,952.0,986.0,1317.0,950.5,918.0,1016.0,983.5,1090.25,1116.0,1129.875,1353.5,1013.0,964.0,1014.3333333333334,1146.0,792.0,1153.76,1050.7931034482758,872.3333333333334,1137.2857142857142,1126.0,1222.25,1097.0,1187.6666666666667
484,1681776486,956.0,978.0,1301.0,945.0,938.0,1018.0,979.0,1080.0,1128.5,1131.0,1355.0,1009.0,955.0,1012.0,1125.5,785.0,1155.4,1044.2758620689656,876.25,1140.857142857143,1111.0,1222.0,1115.0,1220.0
485,1681776487,939.0,967.0,1285.0,929.0,917.0,1026.0,989.0,1055.0,1141.0,1135.5,1393.0,980.0,942.0,1029.0,1105.0,778.0,1157.04,1037.7586206896551,880.1666666666666,1144.4285714285713,1096.0,1244.0,1108.5,1186.3333333333333
486,1681776488,946.0,978.5,1283.0,913.0,918.0,1034.0,987.0,1052.0,1176.0,1140.0,1390.5,987.0,929.0,1019.0,1119.0,785.5,1158.68,1031.2413793103449,884.0833333333334,1148.0,1084.0,1156.0,1102.0,1152.6666666666667
487,1681776489,953.0,990.0,1276.5,940.0,787.0,1044.0,985.0,1031.0,1154.0,1142.5,1388.0,994.0,943.0,1009.0,8755.5,793.0,1160.32,1024.7241379310344,888.0,1151.5714285714287,1097.0,1139.5,1072.0,1119.0
488,1681776490,944.0,1007.0,1270.0,961.0,928.0,1046.0,994.0,1062.0,1142.5,1145.0,1355.0,936.0,940.5,995.0,16392.0,779.0,1161.96,1018.2068965517242,891.9166666666666,1155.142857142857,1110.0,1123.0,1070.0,1100.0
489,1681776491,941.5,994.5,1267.0,982.0,909.0,1032.0,978.0,1055.0,1131.0,1066.0,1354.0,944.0,938.0,994.0,1147.0,775.5,1163.6,1011.6896551724137,895.8333333333334,1158.7142857142858,1134.0,1134.0,1068.0,1091.0
490,1681776492,939.0,982.0,1258.5,969.0,893.0,1049.0,981.0,1037.0,1139.0,1047.0,1353.0,952.0,941.0,993.0,1160.0,772.0,1165.24,1005.1724137931035,899.75,1162.2857142857142,1126.0,1122.5,1064.0,1082.0
491,1681776493,936.0,1010.0,1250.0,963.0,988.0,1045.5,984.0,1034.0,1138.0,1028.0,1313.0,959.0,955.5,1001.0,1173.0,778.0,1166.88,998.655172413793,903.6666666666666,1165.857142857143,1124.5,1111.0,1067.0,1095.0
492,1681776494,948.0,1042.0,1241.0,957.0,911.0,1042.0,979.0,1051.0,1137.0,1026.0,1317.5,984.0,970.0,1007.5,1220.0,783.0,1168.52,992.1379310344828,907.5833333333334,1169.4285714285713,1123.0,1109.0,1067.5,1100.0
493,1681776495,952.0,1045.5,1232.0,959.0,915.0,1033.0,980.0,1068.0,1132.5,1024.0,1322.0,968.5,1004.0,1014.0,1229.5,788.0,1170.16,985.6206896551724,911.5,1173.0,1125.0,1114.5,1068.0,1105.0
494,1681776496,956.0,1049.0,1219.5,959.0,919.0,1032.5,981.0,1059.0,1128.0,1022.5,1344.0,953.0,1026.0,1022.0,1239.0,788.0,1171.8,979.1034482758621,915.4166666666666,1176.5714285714287,1127.0,1120.0,1050.0,1135.0
495,1681776497,938.0,1035.0,1207.0,964.0,917.0,1032.0,981.0,1056.5,1131.5,1021.0,1392.0,954.0,1048.0,1020.0,1184.0,794.0,1173.44,972.5862068965517,919.3333333333334,1180.142857142857,1129.0,1125.0,1058.0,1137.0
496,1681776498,936.0,1027.0,1201.0,969.0,916.5,1020.0,980.0,1054.0,1135.0,1062.0,1401.0,944.0,1028.0,1018.0,1204.5,800.0,1175.08,966.0689655172414,923.25,1183.7142857142858,1120.5,1134.0,1066.0,1122.0
497,1681776499,939.0,1019.0,1190.5,995.0,916.0,1000.0,981.5,1052.0,1160.0,1061.5,1410.0,953.5,1008.0,1003.0,1225.0,818.0,1176.72,959.551724137931,927.1666666666666,1187.2857142857142,1112.0,1144.0,1075.0,1107.0
498,1681776500,942.0,1020.0,1180.0,999.5,911.0,980.0,983.0,1072.5,1180.0,1061.0,1436.0,963.0,988.0,1009.5,1217.0,793.5,1178.36,953.0344827586207,931.0833333333334,1190.857142857143,1123.5,1154.0,1071.0,1121.0
499,1681776501,931.0,1030.0,1172.0,1004.0,913.0,1018.0,990.0,1093.0,1200.0,1072.0,1445.5,980.0,996.0,1016.0,1234.5,769.0,1180.0,946.5172413793103,935.0,1194.4285714285713,1135.0,1177.0,1081.5,1114.0
500,1681776502,928.5,1040.0,1153.0,986.0,915.0,1025.0,991.0,1058.0,1219.0,1067.0,1455.0,980.0,983.0,980.0,1252.0,814.0,1153.0,940.0,926.5,1198.0,1145.0,1185.5,1092.0,1129.5
501,1681776503,926.0,1039.0,1146.5,954.0,908.0,1016.0,992.0,1057.5,1176.5,1062.0,1423.0,980.0,970.0,985.5,1277.0,847.0,1133.5,944.0,918.0,1181.5,1184.0,1194.0,1073.0,1145.0
502,1681776504,918.0,1050.5,1140.0,922.0,912.5,1007.0,985.0,1057.0,1134.0,1070.0,1434.5,1002.0,938.0,991.0,1263.5,846.5,1114.0,943.0,923.0,1165.0,1223.0,1164.0,1066.5,1178.0
503,1681776505,919.0,1062.0,1166.0,917.0,917.0,1012.0,987.25,1100.0,1134.0,1007.0,1446.0,1029.5,933.5,987.0,1250.0,846.0,1095.0,942.0,926.0,1142.0,1179.0,1192.0,1060.0,1174.0
504,1681776506,920.0,1074.0,1162.0,921.0,915.0,1017.0,989.5,1071.0,1154.0,1005.5,1444.0,1057.0,929.0,990.0,1254.0,838.0,1092.0,944.0,929.0,1114.0,1135.0,1191.0,1071.0,1169.5
505,1681776507,949.0,1079.0,1158.0,939.0,916.0,1013.0,991.75,1042.0,1163.0,1004.0,1451.5,1072.0,925.0,993.0,1168.0,816.0,1089.0,944.0,944.0,1122.5,1128.0,1212.0,1037.0,1165.0
506,1681776508,946.0,1084.0,1141.0,957.0,925.0,1009.0,994.0,1095.0,1172.0,997.0,1459.0,1088.5,927.0,991.0,1144.5,794.0,1089.0,940.5,931.5,1131.0,1121.0,1233.0,1032.0,1137.0
507,1681776509,943.0,1079.0,1143.0,993.0,934.0,1006.0,1000.0,1148.0,1156.0,995.0,1470.0,1105.0,925.6666666666666,984.0,1121.0,799.0,1087.0,937.0,919.0,1155.0,1139.0,1203.0,1027.0,1153.0
508,1681776510,975.0,1059.0,1145.0,972.5,924.0,987.0,1006.0,1140.0,1122.0,993.0,1470.0,1083.0,924.3333333333334,977.0,1179.0,795.0,1085.0,951.0,944.0,1148.5,1126.0,1156.5,1026.0,1169.0
509,1681776511,972.0,1048.0,1163.0,952.0,928.5,968.0,1003.0,1131.0,1088.0,988.0,1462.5,1077.5,923.0,991.0,1084.0,784.5,1087.0,953.0,916.0,1142.0,1105.5,1110.0,1022.0,1165.0
510,1681776512,969.0,1037.0,1161.5,922.0,933.0,1025.0,1005.5,1122.0,1082.0,1003.0,1455.0,1072.0,920.0,977.0,1078.5,774.0,1088.0,955.0,904.5,1117.0,1085.0,1090.0,1018.0,1183.0
511,1681776513,961.0,1025.0,1160.0,933.5,933.0,1028.5,1008.0,1119.0,1063.5,1018.0,1450.0,1016.0,925.5,973.5,1073.0,770.0,1089.0,944.0,893.0,1100.5,1080.0,1094.0,1014.0,1201.0
512,1681776514,972.0,1016.5,1206.0,945.0,939.0,1032.0,1003.0,939.0,1045.0,1030.0,1434.0,1004.0,931.0,970.0,1074.0,768.5,1089.0,943.0,869.0,1084.0,1081.5,1098.0,1040.0,1172.0
513,1681776515,965.5,1008.0,1212.5,950.0,917.0,1022.0,1010.0,1114.0,1048.0,1037.0,1418.0,998.0,918.0,977.0,1079.0,767.0,1091.0,942.0,862.0,1081.0,1083.0,1140.0,1045.5,1242.0
514,1681776516,959.0,1046.0,1219.0,941.0,935.0,1007.0,1014.0,1103.0,1056.5,1044.0,1389.0,992.0,919.0,973.0,1084.0,767.0,1090.0,951.0,855.0,1081.5,1101.0,1099.0,1051.0,1199.0
515,1681776517,945.0,1046.0,1224.0,932.0,951.0,997.0,1011.0,1101.0,1065.0,1062.0,1380.0,982.0,920.0,972.5,1103.0,765.0,1089.0,953.0,843.0,1082.0,1101.0,1098.5,1059.0,1156.0
516,1681776518,940.0,1046.0,1219.0,923.0,949.0,1007.0,1029.0,1105.0,1078.0,1085.0,1371.0,991.5,924.0,972.0,1086.0,763.5,1093.0,955.0,842.0,1081.0,1101.0,1098.0,1038.5,1204.0
517,1681776519,935.0,1042.0,1210.5,934.5,950.0,1011.0,1027.0,1109.0,1078.0,1059.0,1349.0,1001.0,894.0,984.0,1069.0,762.0,1091.0,951.0,841.0,1091.0,1122.0,1088.0,1018.0,1197.5
518,1681776520,935.0,1042.0,1202.0,946.0,943.0,1012.0,1032.6666666666667,1097.0,1078.0,1033.0,1321.0,1001.0,864.0,985.5,1059.0,763.0,1089.0,944.0,856.0,1090.0,1129.0,1091.0,1067.0,1191.0
519,1681776521,937.0,1042.0,1192.0,951.0,957.5,1007.0,1038.3333333333333,1119.0,1069.0,996.0,1293.0,991.0,926.0,987.0,1054.0,763.5,1093.0,944.5,860.5,1089.0,1127.5,1094.0,1081.0,1174.0
520,1681776522,939.0,1060.0,1188.0,944.0,972.0,1010.5,1044.0,1121.0,1051.0,995.5,1282.0,981.0,920.0,988.0,1053.5,764.0,1094.0,945.0,865.0,1085.0,1126.0,1098.0,1095.0,1182.5
521,1681776523,934.0,1063.0,1184.0,951.0,952.0,1014.0,1041.0,1115.5,1053.5,995.0,1287.5,956.0,921.0,981.0,1053.0,696.0,1095.0,959.0,844.0,1087.5,1093.0,1099.0,1114.0,1191.0
522,1681776524,936.5,1070.0,1172.0,958.0,958.5,1018.0,1044.0,1110.0,1056.0,995.0,1293.0,976.0,922.0,987.5,1051.0,728.5,1094.0,960.0,844.0,1090.0,1090.5,1100.0,1116.0,1101.0
523,1681776525,939.0,1077.0,1171.0,921.0,965.0,1026.0,1042.6666666666667,1114.0,1049.0,1004.0,1316.0,996.0,923.0,994.0,1047.0,761.0,1096.0,961.0,843.5,1087.0,1088.0,1109.0,1122.0,1099.0
524,1681776526,970.0,1041.5,1170.0,909.0,970.0,1033.0,1041.3333333333333,1142.0,1054.0,1013.0,1323.0,1002.0,924.0,1001.0,1043.0,765.0,1098.0,960.0,843.0,1084.0,1077.0,1098.0,1128.0,1096.0
525,1681776527,978.5,1006.0,1148.0,897.0,954.0,1034.0,1040.0,1144.5,1059.0,1028.0,1317.0,980.0,925.0,988.0,1048.0,759.0,1100.0,959.5,837.0,1081.0,1068.5,1107.5,1116.0,1093.0
526,1681776528,987.0,1007.0,1147.5,899.5,959.0,1035.0,1032.0,1147.0,1074.0,1032.5,1311.0,958.0,926.0,975.0,1037.0,756.0,1096.0,959.0,839.5,1081.0,1060.0,1117.0,1138.0,1088.0
527,1681776529,985.0,1004.5,1147.0,902.0,964.0,1067.5,1025.5,1197.0,1073.5,1037.0,1289.0,949.0,926.0,993.0,1040.5,753.0,1097.0,970.0,842.0,1078.0,1045.0,1122.0,1160.0,1085.0
528,1681776530,978.5,1002.0,1141.0,898.0,976.0,1100.0,1019.0,1204.5,1073.0,1025.0,1292.0,944.5,926.0,985.5,1044.0,757.0,1098.0,968.5,842.0,1075.0,1031.0,1109.0,1146.0,1082.0
529,1681776531,972.0,1011.0,1144.5,908.0,978.0,1079.0,1019.0,1212.0,1055.0,1021.0,1295.0,940.0,919.0,978.0,1047.0,758.5,1100.0,967.0,842.0,1072.0,1031.5,1096.0,1131.0,1102.0
530,1681776532,972.0,1018.0,1148.0,910.5,980.0,1100.0,1023.0,1172.0,1070.5,1017.0,1308.0,940.0,916.0,969.0,1045.5,760.0,1100.0,1002.0,842.0,1070.0,1032.0,1099.0,1116.0,1097.5
531,1681776533,974.5,1025.0,1142.0,913.0,980.0,1100.5,1027.0,1171.0,1086.0,1020.0,1308.5,927.5,916.5,969.5,1044.0,761.0,1100.0,1000.5,838.0,1068.0,1031.0,1097.5,1077.0,1093.0
532,1681776534,977.0,1042.0,1141.5,926.0,1018.0,1101.0,1035.0,1173.0,1093.0,1008.5,1309.0,915.0,917.0,970.0,1045.0,757.0,1097.0,999.0,835.5,1058.0,1031.0,1096.0,1060.0,1082.0
533,1681776535,986.0,1046.0,1141.0,928.5,1017.0,1104.0,1053.25,1175.0,1071.5,997.0,1285.0,920.0,925.0,992.0,1044.5,753.0,1102.0,984.0,833.0,1063.0,1031.0,1080.0,1070.0,1083.5
534,1681776536,990.5,1036.0,1135.0,931.0,1025.0,1061.0,1071.5,1153.0,1050.0,1004.0,1277.5,929.0,922.5,978.0,1044.0,759.0,1107.0,973.0,838.0,1063.0,1039.0,1094.5,1080.0,1085.0
535,1681776537,995.0,1026.0,1136.5,960.0,1033.0,1018.0,1089.75,1110.0,1030.0,996.0,1270.0,942.0,920.0,984.5,1043.0,754.0,1115.0,966.0,836.0,1063.0,1031.0,1109.0,1127.0,1097.0
536,1681776538,995.0,1015.0,1138.0,964.5,1024.0,1021.5,1108.0,1123.0,1029.0,992.0,1273.0,955.0,920.0,991.0,1052.0,753.0,1118.0,959.0,836.0,1058.0,1023.0,1091.0,1129.5,1088.0
537,1681776539,973.0,1028.5,1150.0,969.0,1023.0,1025.0,1136.0,1113.0,1031.6666666666667,988.0,1293.0,928.0,918.0,991.0,1054.5,752.0,1121.0,945.0,836.0,1058.5,1027.0,1097.0,1132.0,1102.5
538,1681776540,970.5,1042.0,1146.0,959.0,1022.0,1042.0,1150.0,1116.5,1034.3333333333333,979.0,1305.5,924.0,916.0,987.0,1057.0,754.0,1132.0,949.5,841.0,1059.0,1009.0,1095.5,1101.0,1117.0
539,1681776541,968.0,1052.0,1167.5,983.0,1001.0,1047.0,1152.5,1120.0,1037.0,1002.0,1318.0,848.0,927.0,983.0,1070.0,756.5,1115.0,954.0,841.5,1063.0,1020.0,1094.0,1103.0,1123.0
540,1681776542,967.5,1055.0,1189.0,969.0,980.0,1058.5,1155.0,1125.0,1191.0,1025.0,1202.0,849.5,864.0,991.0,1072.04,759.0,1115.0,955.0,842.0,1060.0,1031.0,1096.0,1117.0,1127.0
541,1681776543,967.0,1038.0,1210.5,962.0,967.0,1070.0,1135.0,1124.0,1187.5,1026.0,1204.0,851.0,871.2916666666666,993.9166666666666,1074.08,762.48,1115.0,952.5,846.0,1057.0,1032.84,1099.76,1131.0,1131.0
542,1681776544,978.0,1040.5,1232.0,960.0,963.3333333333334,1074.0,1124.0,1123.0,1184.0,1027.0,1206.5,860.0,878.5833333333334,996.8333333333334,1076.12,765.96,1123.0,950.0,843.0,1068.0,1034.68,1103.52,1126.3333333333333,1132.3478260869565
543,1681776545,978.5,1043.0,1233.6666666666667,958.0,959.6666666666666,1080.5,1113.0,1123.0,1180.0,1026.0,1209.0,856.5,885.875,999.75,1078.16,769.44,1131.0,951.5,840.0,1064.3333333333333,1036.52,1107.28,1121.6666666666667,1133.695652173913
544,1681776546,979.0,1050.6,1235.3333333333333,956.0,956.0,1087.0,1112.2,1123.0,1176.0,1025.0,1208.2,853.0,893.1666666666666,1002.6666666666666,1080.2,772.92,1127.5,953.0,840.0,1060.6666666666667,1038.36,1111.04,1117.0,1135.0434782608695
545,1681776547,979.5,1058.2,1237.0,963.2,966.4,1093.5,1111.4,1123.0,1175.6,1024.0,1207.4,849.5,900.4583333333334,1005.5833333333334,1082.24,776.4,1124.0,954.0,840.0,1057.0,1040.2,1114.8,1112.3333333333333,1136.391304347826
546,1681776548,980.0,1065.8,1231.0,970.4,976.8,1100.0,1110.6,1124.4,1175.2,1024.2,1206.6,846.0,907.75,1008.5,1084.28,779.88,1120.5,955.0,840.0,1057.6666666666667,1042.04,1118.56,1107.6666666666667,1137.7391304347825
547,1681776549,979.0,1073.4,1225.0,977.6,987.2,1107.6,1109.8,1125.8,1174.8,1024.4,1205.8,845.6,915.0416666666666,1011.4166666666666,1086.32,783.36,1117.0,956.0,840.0,1058.3333333333333,1043.88,1122.32,1103.0,1139.0869565217392
548,1681776550,978.0,1081.0,1219.0,984.8,997.6,1115.2,1109.0,1127.2,1174.4,1024.6,1205.0,845.2,922.3333333333334,1014.3333333333334,1088.36,786.84,1119.2,957.0,840.0,1059.0,1045.72,1126.08,1098.3333333333333,1140.4347826086957
549,1681776551,977.0,1081.0,1213.0,992.0,1008.0,1122.8,1106.8,1128.6,1174.0,1024.8,1204.8,844.8,929.625,1017.25,1090.4,790.32,1121.4,958.0,840.0,1059.6666666666667,1047.56,1129.84,1093.6666666666667,1141.7826086956522
550,1681776552,976.0,1081.0,1207.0,983.4,998.2,1130.4,1104.6,1130.0,1171.6,1025.0,1204.6,844.4,936.9166666666666,1020.1666666666666,1092.44,793.8,1123.6,959.0,841.0,1060.3333333333333,1049.4,1133.6,1089.0,1143.1304347826087
551,1681776553,975.0,1081.0,1201.6,974.8,988.4,1138.0,1102.4,1129.4,1169.2,1026.0,1204.4,844.0,944.2083333333334,1023.0833333333334,1094.48,797.28,1125.8,959.75,842.0,1061.0,1051.24,1137.36,1084.3333333333333,1144.4782608695652
552,1681776554,979.2,1081.0,1196.2,966.2,978.6,1139.0,1100.2,1128.8,1166.8,1027.0,1204.2,842.6,951.5,1026.0,1096.52,800.76,1128.0,960.5,843.0,1062.0,1053.08,1141.12,1079.6666666666667,1145.8260869565217
553,1681776555,983.4,1081.0,1190.8,957.6,968.8,1140.0,1098.0,1128.2,1164.4,1028.0,1204.0,841.2,958.7916666666666,1028.9166666666667,1098.56,804.24,1115.6,961.25,844.0,1063.0,1054.92,1144.88,1075.0,1147.1739130434783
554,1681776556,987.6,1079.75,1185.4,949.0,959.0,1141.0,1089.0,1127.6,1162.0,1029.0,1206.25,839.8,966.0833333333334,1031.8333333333333,1100.6,807.72,1103.2,962.0,843.5,1064.0,1056.76,1148.64,1070.3333333333333,1148.5217391304348
555,1681776557,991.8,1078.5,1180.0,946.6666666666666,962.6666666666666,1142.0,1080.0,1127.0,1153.0,1030.0,1208.5,838.4,973.375,1034.75,1102.64,811.2,1090.8,964.3333333333334,843.0,1065.0,1058.6,1152.4,1065.6666666666667,1149.8695652173913
556,1681776558,996.0,1077.25,1174.0,944.3333333333334,966.3333333333334,1143.0,1071.0,1130.0,1144.0,1028.3333333333333,1210.75,837.0,980.6666666666666,1037.6666666666667,1104.68,814.68,1078.4,966.6666666666666,842.5,1066.0,1060.44,1156.16,1061.0,1151.2173913043478
557,1681776559,1004.5,1076.0,1168.0,942.0,970.0,1156.0,1062.0,1133.0,1135.0,1026.6666666666667,1213.0,850.5,987.9583333333334,1040.5833333333333,1106.72,818.16,1066.0,969.0,842.0,1066.0,1062.28,1159.92,1056.3333333333333,1152.5652173913043
558,1681776560,1013.0,1061.0,1155.0,938.5,975.0,1113.0,1090.0,1150.0,1129.0,1025.0,1209.0,864.0,995.25,1043.5,1108.76,821.64,1113.0,972.5,848.0,1066.0,1064.12,1163.68,1051.6666666666667,1153.9130434782608
559,1681776561,1034.0,1062.0,1142.0,935.0,906.0,1085.0,1061.0,1147.0,1123.0,1027.0,1213.0,863.0,1002.5416666666667,1046.4166666666667,1110.8,825.12,1108.0,976.0,850.0,1065.0,1065.96,1167.44,1047.0,1155.2608695652175
560,1681776562,1046.0,1063.0,1169.0,920.0,982.0,1054.0,1052.0,1140.0,1120.0,1030.5,1217.0,855.0,1009.8333333333334,1049.3333333333333,1112.84,828.6,1103.5,970.0,852.0,1066.0,1067.8,1171.2,1042.3333333333333,1156.608695652174
561,1681776563,1058.0,1074.0,1186.5,914.0,1003.0,1047.0,1082.0,1152.0,1119.0,1034.0,1217.0,847.0,1017.125,1052.25,1114.88,832.08,1099.0,974.0,855.0,1067.0,1069.64,1174.96,1037.6666666666667,1157.9565217391305
562,1681776564,1085.0,1090.0,1204.0,908.0,999.0,1036.0,1074.0,1199.0,1118.0,1032.5,1218.0,857.0,1024.4166666666667,1055.1666666666667,1116.92,835.56,1098.0,978.0,856.0,1066.0,1071.48,1178.72,1033.0,1159.304347826087
563,1681776565,1104.0,1096.0,1215.0,902.0,999.0,1046.0,1060.0,1118.0,1116.0,1031.0,1217.5,860.0,1031.7083333333333,1058.0833333333333,1118.96,839.04,1100.0,979.0,857.0,1065.0,1073.32,1182.48,1028.3333333333333,1160.6521739130435
564,1681776566,1100.0,1102.0,1210.0,920.0,996.0,1060.0,1058.0,1069.0,1113.0,1034.0,1217.0,852.5,1039.0,1061.0,1121.0,842.52,1099.5,973.0,848.0,1064.0,1075.16,1186.24,1023.6666666666666,1162.0
565,1681776567,1096.0,1072.0,1212.0,927.0,996.0,1046.0,1056.0,1125.0,1107.5,1037.0,1229.0,845.0,1034.0,1049.0,1118.5,846.0,1099.0,975.0,842.0,1063.0,1077.0,1190.0,1019.0,1160.5
566,1681776568,1058.0,1035.0,1214.0,927.5,1003.0,1046.0,1053.0,1104.0,1102.0,1048.0,1233.0,861.0,1033.0,1054.5,1116.0,867.0,1099.0,977.0,842.5,1063.0,1091.5,1188.5,1006.0,1159.0
567,1681776569,1051.5,1021.0,1224.0,928.0,1009.0,992.0,1069.0,1134.0,1090.0,1109.0,1237.0,856.3333333333334,1032.0,1060.0,1128.0,877.0,1101.5,979.0,843.0,1062.5,1106.0,1187.0,1009.5,1179.0
568,1681776570,1045.0,1007.0,1230.5,920.0,974.0,1035.0,1085.0,1109.0,1099.0,1131.0,1250.0,851.6666666666666,1035.0,1079.0,1131.0,887.0,1104.0,983.5,842.0,1062.0,1065.0,1217.0,1013.0,1183.0
569,1681776571,1046.0,1025.0,1237.0,927.0,985.0,1057.0,1072.0,1120.0,1101.0,1105.0,1241.0,847.0,1029.5,1083.0,1134.0,880.0,1126.0,988.0,843.0,1058.0,1070.0,1223.0,1015.0,1187.0
570,1681776572,1046.0,1042.5,1271.0,934.0,996.0,1056.0,1066.5,1134.0,1103.5,1079.0,1235.5,865.0,1024.0,1075.5,1132.0,857.0,1128.5,984.0,844.0,1057.0,1074.0,1229.0,1021.0,1225.0
571,1681776573,1046.0,1060.0,1292.5,956.0,1020.0,1055.0,1061.0,1127.5,1106.0,1036.0,1230.0,878.5,1026.0,1068.0,1128.5,829.5,1131.0,984.0,844.0,1060.0,1078.0,1175.0,1020.0,1270.0
572,1681776574,1046.0,1066.0,1314.0,962.0,1021.5,1048.0,1065.0,1121.0,1115.0,1030.0,1225.0,892.0,1024.0,1073.0,1125.0,802.0,1133.0,983.5,846.0,1063.0,1109.0,1163.5,1019.0,1315.0
573,1681776575,1046.0,1068.0,1295.3333333333333,959.0,1023.0,1052.0,1066.6666666666667,1101.0,1108.5,1024.0,1221.0,903.0,1022.0,1058.5,1120.0,831.0,1131.0,983.0,848.0,1106.0,1128.0,1152.0,1016.0,1237.0
574,1681776576,1048.0,1060.0,1276.6666666666667,959.0,1005.0,1058.0,1068.3333333333333,1122.0,1102.0,1020.0,1217.0,902.5,1022.0,1044.0,1121.0,832.0,1129.0,977.0,865.0,1147.0,1147.0,1146.0,1053.0,1219.0
575,1681776577,1029.0,1062.5,1258.0,960.5,979.0,1064.0,1070.0,1106.0,1104.0,1032.5,1219.0,902.0,1022.0,1052.0,1117.5,833.0,1130.0,977.0,889.0,1188.0,1118.0,1134.0,1090.0,1196.5
576,1681776578,1024.0,1065.0,1257.0,962.0,1014.0,1057.0,1058.0,1090.0,1102.5,1045.0,1253.0,891.0,1022.0,1044.5,1114.0,821.0,1151.0,977.0,881.6666666666666,1213.0,1090.0,1134.0,1026.0,1174.0
577,1681776579,1019.0,1069.0,1252.5,980.0,1040.0,1051.0,1046.0,1133.0,1101.0,1038.0,1247.5,902.0,1007.0,1037.0,1125.0,818.5,1172.0,972.0,874.3333333333334,1230.0,1087.5,1134.0,1022.0,1163.0
578,1681776580,1010.0,1066.0,1248.0,981.5,1066.0,1071.0,1049.0,1137.0,1149.0,1071.0,1242.0,898.5,1013.0,1032.0,1126.0,816.0,1211.0,973.0,867.0,1186.0,1085.0,1160.0,1026.0,1127.5
579,1681776581,1024.0,1063.5,1190.0,983.0,1001.0,1066.0,1052.0,1069.0,1184.0,1062.0,1234.0,895.0,1009.0,1042.5,1127.0,818.0,1232.0,979.0,860.0,1142.0,1094.0,1155.5,1030.0,1092.0
580,1681776582,1023.0,1061.0,1143.0,986.0,986.5,1061.0,1052.0,1001.0,1219.0,1053.0,1237.0,889.0,1005.0,1053.0,1172.0,816.0,1249.0,985.0,857.3333333333334,1110.0,1089.0,1151.0,1051.0,1148.0
581,1681776583,1022.0,1060.0,1149.0,995.0,972.0,1060.0,1052.5,1133.0,1213.0,1063.0,1240.0,902.5,1006.0,1041.0,1157.0,814.0,1247.0,996.0,854.6666666666666,1092.0,1084.0,1139.0,1081.0,1168.0
582,1681776584,1020.0,1060.0,1155.0,1004.0,969.0,1069.3333333333333,1053.0,1140.0,1180.0,1060.0,1236.0,916.0,1007.0,1056.0,1142.0,815.0,1245.0,1010.0,852.0,1085.0,1084.0,1140.0,1111.0,1179.0
583,1681776585,1019.0,1060.0,1153.0,1005.0,971.0,1078.6666666666667,1042.0,1140.0,1176.0,1057.0,1240.0,917.0,1008.0,1054.5,1122.0,822.0,1215.0,1010.0,861.0,1078.0,1079.5,1141.0,1071.0,1190.0
584,1681776586,1018.0,1062.0,1154.0,997.0,973.0,1088.0,1046.0,1140.0,1172.0,1048.0,1239.0,946.0,1005.0,1053.0,1116.0,821.5,1169.0,1016.5,870.0,1076.0,1075.0,1135.0,1064.0,1199.0
585,1681776587,1010.0,1062.0,1155.0,995.0,975.0,1093.5,1054.0,1125.0,1180.0,1055.5,1238.0,960.3333333333334,1001.0,1037.0,1110.0,821.0,1172.0,1023.0,869.6666666666666,1069.0,1081.0,1154.0,1057.0,1197.5
586,1681776588,1016.0,1054.0,1151.0,993.0,998.0,1099.0,1062.0,1131.0,1191.0,1063.0,1241.0,974.6666666666666,997.0,1047.0,1110.0,815.0,1175.0,1033.0,869.3333333333334,1073.0,1081.0,1148.0,1059.0,1196.0
587,1681776589,1022.0,1046.0,1150.5,980.0,1003.5,1095.0,1046.0,1137.0,1185.5,1075.0,1237.0,989.0,1006.0,1057.0,1115.5,816.5,1169.0,1037.0,869.0,1069.0,1082.0,1142.0,1055.0,1220.0
588,1681776590,1007.0,1072.0,1150.0,978.0,1009.0,1090.5,1047.0,1134.0,1180.0,1078.0,1239.0,1006.0,1008.0,1053.0,1121.0,818.0,1142.0,1041.0,868.0,1066.0,1083.0,1151.0,1051.0,1205.5
589,1681776591,1003.0,1078.5,1187.0,976.0,1005.0,1086.0,1048.0,1142.3333333333333,1176.0,1117.0,1241.0,1014.5,1010.0,1052.0,1130.0,821.0,1133.0,1043.5,867.0,1071.5,1083.0,1152.5,1057.0,1191.0
590,1681776592,1000.0,1085.0,1188.0,971.0,1010.0,1101.0,1046.0,1150.6666666666667,1171.0,1112.5,1270.0,1023.0,1010.0,1051.0,1152.0,823.5,1142.0,1046.0,858.3333333333334,1077.0,1083.0,1154.0,1079.0,1184.0
591,1681776593,997.0,1071.0,1178.0,977.0,996.0,1080.0,1053.0,1159.0,1166.0,1108.0,1281.5,1040.0,962.0,1040.0,1152.0,826.0,1158.0,1059.0,849.6666666666666,1083.0,1083.0,1152.0,1097.0,1174.0
592,1681776594,998.0,1101.0,1168.0,983.0,1008.0,1087.0,1060.0,1168.0,1153.0,1108.0,1293.0,1042.0,985.0,1043.0,1152.0,818.0,1158.5,1043.0,841.0,1082.0,1083.0,1158.0,1100.0,1175.0
593,1681776595,999.0,1094.0,1168.0,976.0,1015.0,1092.0,1068.0,1150.0,1123.0,1111.0,1305.0,1044.0,1008.0,1046.0,1148.0,818.5,1159.0,1047.0,840.5,1082.5,1098.0,1160.5,1103.0,1176.0
594,1681776596,1007.0,1087.0,1147.0,956.0,1025.0,1056.0,1066.0,1177.0,1106.5,1114.0,1312.0,1028.0,1010.0,1053.0,1157.0,819.0,1177.0,1047.5,840.0,1083.0,1104.0,1163.0,1108.0,1162.0
595,1681776597,1015.0,1078.0,1146.0,957.0,1023.0,1077.0,1072.5,1181.0,1090.0,1119.0,1317.0,1006.5,1013.5,1071.0,1166.0,860.0,1188.0,1048.0,841.0,1093.0,1110.0,1174.0,1105.5,1168.0
596,1681776598,1020.0,1077.0,1145.0,957.5,1022.0,1076.0,1079.0,1143.0,1083.0,1131.0,1322.0,985.0,1017.0,1073.5,1186.0,843.0,1179.0,1059.0,842.0,1100.0,1108.0,1179.0,1103.0,1166.5
597,1681776599,1013.5,1076.0,1145.0,958.0,1018.5,1075.0,1078.0,1135.6666666666667,1092.5,1143.0,1305.0,960.0,1022.0,1076.0,1187.5,826.0,1175.5,1063.0,844.0,1107.0,1105.0,1169.0,1077.0,1165.0
598,1681776600,1007.0,1094.0,1145.0,959.0,1015.0,1056.0,1061.0,1128.3333333333333,1102.0,1102.0,1304.5,965.0,1019.0,1077.0,1189.0,834.0,1172.0,1059.0,846.0,1116.5,1102.0,1159.0,1072.0,1180.0
599,1681776601,1007.0,1121.0,1145.0,945.0,1075.0,1046.0,1059.0,1121.0,1099.0,1100.0,1304.0,964.0,1016.0,1078.0,1199.0,838.5,1180.0,1061.0,844.0,1126.0,1083.0,1156.0,1067.0,1179.0
600,1681776602,1007.0,1132.0,1145.0,947.5,1030.0,1043.5,1057.0,1117.0,1095.5,1096.3333333333333,1303.0,963.0,1034.0,1112.0,1207.0,843.0,1183.0,1063.0,843.0,1162.0,1088.0,1159.5,1059.0,1178.0
601,1681776603,1003.0,1111.5,1157.0,950.0,1013.5,1041.0,1068.0,1127.0,1092.0,1092.6666666666667,1306.0,934.0,1012.5,1089.0,1215.0,834.0,1181.5,1068.0,842.0,1167.0,1097.0,1163.0,1059.0,1182.0
602,1681776604,999.0,1091.0,1167.0,952.0,997.0,1041.0,1079.0,1137.0,1083.0,1089.0,1309.0,928.0,991.0,1087.5,1252.0,838.0,1180.0,1050.0,848.0,1172.0,1106.0,1175.0,1059.0,1180.5
603,1681776605,990.0,1077.0,1177.0,951.0,996.0,1046.5,1090.0,1150.0,1089.0,1098.0,1312.0,934.5,997.0,1086.0,1368.0,838.0,1189.0,1032.0,858.5,1175.0,1057.0,1190.5,1067.0,1179.0
604,1681776606,982.0,1078.0,1164.0,950.0,996.0,1052.0,1085.0,1150.5,1078.0,1096.5,1310.0,941.0,1002.0,1065.0,1354.5,838.0,1169.0,989.0,869.0,1181.0,1075.0,1206.0,1073.0,1172.0
605,1681776607,986.0,1079.0,1171.5,963.0,1031.5,1069.0,1074.0,1151.0,1084.0,1095.0,1309.0,921.0,1002.5,1061.5,1341.0,817.0,1149.0,998.0,903.0,1190.0,1093.0,1180.0,1072.5,1181.5
606,1681776608,990.0,1072.0,1179.0,958.0,1067.0,1067.0,1063.0,1168.0,1090.0,1083.0,1308.0,920.0,1003.0,1058.0,1277.0,808.5,1146.0,1003.5,910.0,1199.0,1109.0,1168.0,1072.0,1191.0
607,1681776609,995.0,1066.0,1190.0,953.0,1000.0,1065.0,1069.0,1161.5,1091.0,1079.0,1318.0,919.0,1020.0,1071.0,1275.5,800.0,1155.0,1009.0,908.0,1181.5,1109.0,1156.0,1093.0,1172.0
608,1681776610,995.0,1060.0,1194.0,961.0,1006.5,1057.0,1085.0,1155.0,1094.0,1075.0,1311.0,941.0,1012.5,1062.0,1274.0,800.0,1155.5,1017.0,906.0,1164.0,1109.0,1201.0,1093.0,1131.0
609,1681776611,995.0,1062.0,1200.0,969.0,1013.0,1042.0,1064.5,1152.0,1097.0,1078.0,1310.5,962.0,1005.0,1065.5,1252.0,804.0,1156.0,1025.0,911.0,1155.5,1117.0,1190.0,1093.0,1145.5
610,1681776612,990.0,1056.0,1206.0,971.5,992.0,1038.5,1044.0,1141.0,1105.0,1079.5,1310.0,958.0,1008.0,1069.0,1236.0,810.0,1167.0,1017.0,920.0,1147.0,1138.5,1179.0,1070.0,1160.0
