timestamp,Barometric_Pressure,Humidity,Temperature,Wind_Direction,Wind_Speed
4/18/23 0:00,827.0644331,32.20029831,10.97148714,306.3357739,1.83650198
4/18/23 0:00,827.0738973,32.20029734,11.11662587,311.5238733,1.875020535
4/18/23 0:00,827.3010683,32.13877201,10.86105642,324.6943145,1.966546745
4/18/23 0:00,827.0739125,32.10091271,11.01251101,316.473451,2.060547512
4/18/23 0:00,827.0928466,31.99994624,10.96991417,315.1870927,1.947818413
4/18/23 0:00,827.0739259,32.00152777,11.02040013,312.6313725,2.017788689
4/18/23 0:00,827.0265947,31.90213419,10.94151532,318.6117198,1.978208778
4/18/23 0:00,827.0550011,31.99994721,10.84370588,316.490497,1.908239486
4/18/23 0:00,827.0739317,31.79959297,10.84370909,325.9892421,2.113202038
4/18/23 0:00,826.9887532,31.79328345,10.66070755,340.7697964,1.919901669
4/18/23 0:00,827.0644617,31.79959297,10.78218279,323.0927653,2.411103783
4/18/23 0:00,827.0739031,31.80116653,10.99515257,324.0383534,2.378591022
4/18/23 0:00,827.0644331,31.70177698,10.99515257,335.1983171,2.25172657
4/18/23 0:00,827.0171346,31.6986265,10.94467362,340.4971895,1.978209813
4/18/23 0:00,827.0833673,31.70493029,10.89733799,336.3057852,1.748156216
4/18/23 0:00,826.9319619,31.67811774,10.82162102,340.4886665,1.706458466
4/18/23 0:00,826.8657006,31.86427496,10.78691204,336.3995381,1.706458466
4/18/23 0:00,827.0928337,31.7017778,10.80426355,335.1898114,1.553089402
4/18/23 0:00,826.8657064,31.66234255,10.69541273,330.0187612,1.57994751
4/18/23 0:00,827.0834017,31.79959297,10.60706911,326.7559762,1.634721794
4/18/23 0:00,827.0833731,31.59923315,10.65596876,314.1136565,1.217375393
4/18/23 0:00,827.1118058,31.59923933,10.48717221,316.8994322,1.361556847
4/18/23 0:00,827.1780479,31.80274785,10.80426571,337.0384358,1.442481079
4/18/23 0:00,827.0928372,31.8027439,10.84527691,327.2841129,1.848516858
4/18/23 0:00,827.1496344,31.81378603,10.88156519,320.58814,1.608570061
4/18/23 0:00,827.0739031,31.59923315,10.75851259,329.7546258,1.496547737
4/18/23 0:00,826.998191,31.78854786,10.80584188,335.9905859,1.383819172
4/18/23 0:00,827.0455562,31.79959394,10.80584442,334.1249409,1.425519226
4/18/23 0:00,827.0550203,31.59923792,10.73485193,326.2618489,1.174264059
4/18/23 0:00,827.0550203,31.8011713,10.7332736,308.3122315,1.256955671
4/18/23 0:00,827.0739353,31.80116951,10.80426571,310.1864165,1.541781616
4/18/23 0:00,826.988721,31.78854786,10.79322,325.2991806,1.4969016
4/18/23 0:00,827.0833731,31.7995882,10.73484716,317.0442252,1.585600109
4/18/23 0:00,827.0834017,31.69862747,10.66070852,303.1837621,1.96195425
4/18/23 0:00,826.9982232,31.79012917,10.54238518,294.7754564,1.685255444
4/18/23 0:00,827.0833766,31.70177996,10.68594334,308.2014617,1.486300507
4/18/23 0:00,826.9982004,31.7002058,10.80584345,305.816155,1.640375862
4/18/23 0:00,827.2064221,31.7159766,10.76166866,310.1863843,1.412796555
4/18/23 0:00,826.998204,31.69073641,10.65596936,319.1228846,1.524819279
4/18/23 0:00,827.0739125,31.70178093,10.75851416,326.0062708,1.667585914
4/18/23 0:00,827.0644617,31.70178175,10.68279085,322.5731206,1.83120266
4/18/23 0:00,827.0833825,31.7002026,10.63546156,320.0770267,1.947111671
4/18/23 0:00,827.0171346,31.58819579,10.57551583,317.8450461,1.972909024
4/18/23 0:00,827.0644617,31.59923792,10.66228209,319.1569734,1.864773922
4/18/23 0:00,827.0549689,31.70019962,10.66227829,312.6313572,1.696208999
4/18/23 0:00,827.2064257,31.62447453,10.65754709,317.1464496,2.141824589
4/18/23 0:00,827.0550011,31.5992371,10.65912699,316.481974,2.005773227
4/18/23 0:00,827.0739223,31.59923397,10.51240583,320.4348208,1.98987056
4/18/23 0:00,827.0739223,31.6008123,10.66228052,317.2742344,2.169035542
4/18/23 0:00,827.1023095,31.60238922,10.73485134,321.3463479,2.184937859
4/18/23 0:00,827.0454989,31.59765579,10.6543914,325.0776739,2.08599015
4/18/23 0:00,826.9130278,31.57557487,10.56131659,320.9544997,2.151367397
4/18/23 0:00,827.0644581,31.59923494,10.58181999,317.8364993,1.961953316
4/18/23 0:00,827.0644331,31.6008091,10.58182058,320.8352036,2.156313305
4/18/23 0:00,827.0738973,31.60081051,10.56288918,317.3083038,1.738614876
4/18/23 0:00,827.0739317,31.59923792,10.70645628,318.2369285,1.640022583
4/18/23 0:00,827.1307324,31.61343493,10.62441801,317.6235393,1.775720966
4/18/23 0:00,827.0455311,31.60239138,10.48559164,310.5953191,1.63966872
4/18/23 0:00,827.0550145,31.60081528,10.36569317,309.7689877,1.607864621
4/18/23 0:00,827.0644331,31.60238743,10.38777647,304.052669,1.722712727
4/18/23 0:01,827.0360482,31.59923494,10.49189804,302.3914558,1.737908669
4/18/23 0:01,827.0549823,31.7017778,10.36884447,301.0710055,1.808938515
4/18/23 0:01,827.1874857,31.71755314,10.29311953,302.5022063,1.874667206
4/18/23 0:01,827.0549881,31.70020044,10.49031971,303.3796846,1.876081257
4/18/23 0:01,827.0550011,31.79959215,10.48874353,304.7171873,1.875728328
4/18/23 0:01,827.0550011,31.7002026,10.48874353,304.7342075,1.902585418
4/18/23 0:01,826.9319619,31.67811774,10.48874577,306.0546646,1.803638661
4/18/23 0:01,827.1591079,31.71597779,10.58971283,308.320732,1.748510513
4/18/23 0:01,827.0549823,31.90213285,10.61021944,310.1949021,1.79232959
4/18/23 0:01,827.1117602,31.79958917,10.53922569,312.1116867,1.651682746
4/18/23 0:01,827.0833766,31.99837029,10.63546059,313.1680716,1.737909069
4/18/23 0:01,826.988734,31.99205935,10.57866929,315.4682225,1.707164707
4/18/23 0:01,827.1117795,32.01098859,10.6938338,317.376464,1.734021397
4/18/23 0:01,827.0549631,32.00152159,10.78059969,310.2034078,1.607509956
4/18/23 0:01,827.1401644,32.01414108,10.82003889,319.1910138,1.580652866
4/18/23 0:01,827.0076548,31.9904802,10.7474712,318.8502605,1.683841026
4/18/23 0:01,827.1401738,32.00467981,10.73327517,319.1569561,1.513864372
4/18/23 0:01,827.0644581,31.90055549,10.71276424,316.7545692,1.524818878
4/18/23 0:01,827.0644331,31.90213203,11.11189184,328.4938159,1.662990932
4/18/23 0:01,826.8467665,31.76331043,10.83266554,313.108459,1.512451305
4/18/23 0:01,827.0644675,31.90056182,10.70961391,310.5612497,1.72342097
4/18/23 0:01,827.0739281,31.90055549,11.11031768,308.3292485,1.935803051
4/18/23 0:01,827.1969615,31.80116512,10.91942703,319.0121136,1.480292175
4/18/23 0:01,827.0928431,31.90213203,11.216014,320.9544482,1.383818588
4/18/23 0:01,827.0833695,31.80116832,10.86894748,306.0631639,1.77501379
4/18/23 0:01,827.1023358,31.80117033,10.75851639,311.8476181,1.831909268
4/18/23 0:01,827.0928524,31.79801382,10.76009249,314.7781747,1.634721344
4/18/23 0:01,827.0739317,31.79959297,10.75693903,319.8385034,1.613165493
4/18/23 0:01,827.2348128,31.82325222,10.82950508,324.81359,1.616344554
4/18/23 0:01,827.1023095,31.89897954,10.84212539,308.5762864,1.679247112
4/18/23 0:01,827.121253,31.7002058,10.84528742,307.809607,1.569345932
4/18/23 0:01,826.9697998,31.67496122,10.83266234,304.7086643,1.553089836
4/18/23 0:01,827.0455253,31.69073641,10.78217862,310.1949137,1.542135029
4/18/23 0:01,827.1022844,31.70177698,10.80741701,310.1778646,1.542134094
4/18/23 0:01,827.1022844,31.70177698,10.56446848,302.7918591,1.909298706
4/18/23 0:01,826.9508733,31.67654179,10.53607663,298.5238457,1.848518326
4/18/23 0:01,827.0928431,31.70019865,10.84527788,310.3312011,1.831907883
4/18/23 0:01,827.0549881,31.70020044,10.76009033,306.3272735,1.6788937
4/18/23 0:01,827.0739223,31.70020185,10.86736818,303.0474373,1.776073945
4/18/23 0:01,827.0644523,31.70020185,11.16869112,314.3692347,1.713171837
4/18/23 0:01,827.0644523,31.7017778,11.01881643,325.3502928,1.663698208
4/18/23 0:01,826.9697869,31.68600261,11.10085247,318.5606185,1.469337769
4/18/23 0:01,827.0550145,31.70335911,11.01724347,306.4635878,1.848518326
4/18/23 0:01,827.1969557,31.72701836,10.75851259,303.7800622,1.793035831
4/18/23 0:01,827.0360611,31.5992371,10.65754866,300.9006399,1.957713115
4/18/23 0:01,827.1117924,31.61028065,10.63703989,297.7315563,1.580653751
4/18/23 0:01,827.1969807,31.62289798,10.89734313,308.7211257,1.902585068
4/18/23 0:01,827.0455123,31.6008123,10.86894651,311.8646351,1.65203666
4/18/23 0:01,827.0644331,31.6008091,10.80899534,304.2997327,1.525525169
4/18/23 0:01,826.9792832,31.58977173,10.95413884,309.7178755,1.696210301
4/18/23 0:01,827.1401738,31.61185659,11.00304579,306.8554529,1.596909397
4/18/23 0:01,827.0644653,31.80116951,11.11505387,306.8895396,1.525172558
4/18/23 0:01,827.0644581,31.60081327,11.14029167,316.8994085,1.355548515
4/18/23 0:01,827.0644389,31.79958917,11.06456672,305.6627722,1.596555049
4/18/23 0:01,827.0455182,31.80116832,10.89418647,310.7060548,1.651329918
4/18/23 0:01,827.0644523,31.79958902,10.58497568,298.9412629,1.624826157
4/18/23 0:01,827.0644617,31.70178175,10.48874674,299.852819,1.382759953
4/18/23 0:01,827.1496402,31.71124317,10.59601699,309.7348804,1.45272826
4/18/23 0:01,826.988721,31.68915831,10.70329805,299.4097954,1.556623261
4/18/23 0:01,827.0833959,31.70493744,10.66385945,298.5408659,1.607864621
4/18/23 0:02,826.998191,31.69073425,10.88472029,300.6621081,1.668998997
4/18/23 0:02,827.0928717,31.5014267,10.7553607,297.0756125,1.623413525
4/18/23 0:02,827.0834017,31.7002058,10.84370909,302.3744388,1.678541222
4/18/23 0:02,827.0928466,31.70177996,10.89260933,308.6103848,1.60786417
4/18/23 0:02,826.9414091,31.6733861,10.86894808,312.086164,1.607511292
4/18/23 0:02,827.1401644,31.70177698,10.96517859,312.5035586,1.706457081
4/18/23 0:02,827.0739281,31.70177877,10.93836067,305.790557,1.63472086
4/18/23 0:02,827.0644653,31.70177996,11.06614945,309.7860163,1.570052223
4/18/23 0:02,826.9887398,31.68915905,11.15133738,313.9688514,1.496548622
4/18/23 0:02,827.2726928,31.73648454,11.15133201,311.6601744,1.387705944
4/18/23 0:02,827.0549631,31.70177698,11.18761835,313.8410497,1.607863235
4/18/23 0:02,827.0550145,31.60239361,11.19551381,306.4465418,1.414564335
4/18/23 0:02,827.0360611,31.60081305,10.99515413,301.1988157,1.480999801
4/18/23 0:02,827.0739223,31.6008123,10.96833368,299.8613078,1.383112347
4/18/23 0:02,827.1496344,31.61343098,11.02828321,297.6633897,1.425517807
4/18/23 0:02,827.0360804,31.60081625,11.11347971,302.5107551,1.312083302
4/18/23 0:02,827.0644331,31.50142193,10.91784773,303.055943,1.239991865
4/18/23 0:02,827.0644711,31.50142588,10.88945841,308.1929439,1.382759368
4/18/23 0:02,827.1307324,31.49984755,10.8926103,306.0461553,1.289819725
4/18/23 0:02,827.0644389,31.39887668,10.78217422,298.1319275,1.129383142
4/18/23 0:02,827.0739125,31.49984755,10.58340048,295.8658975,1.246000297
4/18/23 0:02,827.2253621,31.42254293,10.55815933,298.1148988,1.202180452
4/18/23 0:02,827.0076668,31.38625801,10.758512,304.7171756,1.441420574
4/18/23 0:02,827.0928431,31.3988781,10.53922472,303.055943,1.338585644
4/18/23 0:02,827.0739281,31.40045583,10.80742118,290.5585109,1.386999569
4/18/23 0:02,827.0833731,31.29791021,10.53606806,282.4654098,1.273209848
4/18/23 0:02,827.0739281,31.39887989,10.6575465,298.1489908,1.311375675
4/18/23 0:02,827.0833731,31.50142193,10.60863791,292.3474917,1.340705986
4/18/23 0:02,827.0739125,31.50142588,10.41617369,298.1234335,1.312082851
4/18/23 0:02,827.1212624,31.50300182,10.38777803,292.2197326,1.239992816
4/18/23 0:02,827.0928524,31.39888205,10.71118807,288.6672948,1.469691532
4/18/23 0:02,826.9130085,31.4761845,10.48716997,280.3271526,1.284519069
4/18/23 0:02,827.0739317,31.4004612,10.34045515,283.64959,1.408910217
4/18/23 0:02,827.0549689,31.40045501,10.58970844,283.8199262,1.317029293
4/18/23 0:02,827.0455503,31.5014267,10.53449926,285.1404176,1.185218983
4/18/23 0:02,827.0739317,31.4004612,10.19215879,286.5545897,1.383820057
4/18/23 0:02,826.988759,31.38626337,10.32625494,285.0722594,1.387707195
4/18/23 0:02,827.036079,31.39415003,10.28523718,287.4575875,1.382406223
4/18/23 0:02,827.0644581,31.50142372,10.38462398,288.6758062,1.361202717
4/18/23 0:02,826.9224785,31.4761845,10.48559164,289.0847152,1.42304507
4/18/23 0:02,827.0550074,31.49984859,10.11800846,285.1404059,1.372158024
4/18/23 0:02,827.0739125,31.50300182,10.16533827,276.7065567,1.300421302
4/18/23 0:02,826.9792569,31.48722589,10.26787994,276.689499,1.218082685
4/18/23 0:02,827.0644711,31.5992371,10.36411738,284.2033094,1.274270904
4/18/23 0:02,827.0834017,31.59923792,10.26945887,280.3612361,1.262256393
4/18/23 0:02,827.0739317,31.60081625,10.53607759,287.8750348,1.24635416
4/18/23 0:02,826.9414091,31.7002058,10.22055445,279.8074994,1.387353916
4/18/23 0:02,827.0739375,31.70020439,10.43668663,283.8029318,1.317030761
4/18/23 0:02,827.0739125,31.70178093,10.63388323,280.744573,1.458383262
4/18/23 0:02,827.0739353,31.70335829,10.58655617,278.8959292,1.480646439
4/18/23 0:02,826.9130085,31.67653956,10.74274038,283.6580957,1.398308322
4/18/23 0:02,827.0550203,31.70178175,10.84213076,296.2833352,1.469692116
4/18/23 0:02,827.0455311,31.79959215,10.7348535,291.4700445,1.229744718
4/18/23 0:02,827.0739281,31.79958999,10.80426452,292.3560373,1.3120825
4/18/23 0:02,827.0739031,31.80116653,10.63703356,294.0853829,1.409262161
4/18/23 0:02,827.1875107,31.82483137,10.78059909,291.0611354,1.345300484
4/18/23 0:02,827.0549823,31.80116735,10.82319399,292.7904984,1.185218031
4/18/23 0:02,827.0644653,31.80116951,10.80742238,296.6837128,1.021955566
4/18/23 0:02,827.0550011,31.79959215,10.68121409,298.5153106,0.867527416
4/18/23 0:02,827.0644711,31.80117048,10.53607439,281.1534961,0.906399467
4/18/23 0:03,827.0360482,31.80116832,10.68594215,272.2766258,1.441773987
4/18/23 0:03,826.9792891,31.78855181,10.4303771,279.7904534,1.442128201
4/18/23 0:03,827.0549881,31.79958999,10.68752048,281.1364385,1.497254963
4/18/23 0:03,827.0360611,31.80117048,10.73642706,282.082064,1.579593647
4/18/23 0:03,826.8940878,31.77592993,10.48401651,272.2937007,1.486301041
4/18/23 0:03,827.0739125,31.79959215,10.43510889,266.1173757,1.360496242
4/18/23 0:03,826.9035448,31.7775061,10.75220664,272.293689,1.623766453
4/18/23 0:03,827.0834017,32.00152636,10.76009569,274.97718,1.328338947
4/18/23 0:03,827.0833695,31.79958999,10.84370372,276.2890989,1.016301098
4/18/23 0:03,827.0171404,31.99995041,10.80584345,290.5500169,0.917001429
4/18/23 0:03,827.0739317,31.99995041,10.73485193,290.9418941,1.036091404
4/18/23 0:03,826.9982004,31.99048281,10.75693903,272.2851777,0.735009346
4/18/23 0:03,827.0833731,32.00309753,10.81846056,282.0820298,0.572805233
4/18/23 0:03,827.0644617,31.99837208,10.80584345,274.0400891,0.681648545
4/18/23 0:03,827.1780215,32.01256372,10.72222625,280.2419195,0.796143205
4/18/23 0:03,827.0549689,31.99994422,10.71433937,284.7314739,0.950571439
4/18/23 0:03,827.0739259,32.00152777,10.65755089,292.7734814,1.190873034
4/18/23 0:03,827.0644617,32.00152636,10.68752584,282.0735583,1.397601948
4/18/23 0:03,827.0549881,31.99994504,10.56288955,276.680976,1.312435913
4/18/23 0:03,826.9981968,31.98732555,10.58024642,273.1114923,1.387706394
4/18/23 0:03,827.0739031,32.00152159,10.6133729,276.3231683,1.328337479
4/18/23 0:03,827.0739317,31.99837208,10.56289492,275.9313169,1.273918009
4/18/23 0:03,826.988721,31.98890291,10.59759756,272.2255083,1.326571133
4/18/23 0:03,827.0644617,31.79959297,10.59129057,274.0315661,1.344948006
4/18/23 0:03,826.9130027,31.77592814,10.63388703,270.0446395,1.212075539
4/18/23 0:03,827.0550011,31.99994721,10.66070532,276.6724647,1.301127994
4/18/23 0:03,827.0739125,31.90055765,10.63703989,272.2681144,1.328338497
4/18/23 0:03,827.0644675,31.90056182,10.65913116,270.5472917,1.118429687
4/18/23 0:03,827.1117795,32.00310171,10.58497665,276.698022,1.382759018
4/18/23 0:03,827.0739125,31.90055765,10.65754866,285.1233543,1.229391305
4/18/23 0:03,827.0076668,31.98732555,10.59759853,272.2681028,1.190872183
4/18/23 0:03,827.0833695,31.99994504,10.66228149,274.9771768,0.989797421
4/18/23 0:03,827.0644581,31.90055549,10.58497665,278.3677551,1.037150707
4/18/23 0:03,827.1401738,31.91475786,10.71907496,269.6357473,0.907459638
4/18/23 0:03,827.14965,31.91318057,10.52187522,277.0899165,1.130444214
4/18/23 0:03,827.0455503,32.00152636,10.65913019,281.1535134,1.218083553
4/18/23 0:03,827.1307324,31.91475786,10.66701387,273.2307743,1.091925409
4/18/23 0:03,826.9603169,31.887936,10.62126396,284.7314912,1.057293491
4/18/23 0:03,827.0549631,31.90213203,10.5912858,283.7858548,0.935375948
4/18/23 0:03,826.9792569,31.88635767,10.64492462,281.1534845,1.090511475
4/18/23 0:03,827.0360804,31.90371513,10.71119127,268.7753291,0.835016642
4/18/23 0:03,826.9792698,31.8895141,10.74904894,272.2936834,0.939970863
4/18/23 0:03,827.0549881,31.90213382,10.82003829,278.8789026,0.868233757
4/18/23 0:03,827.0644389,31.90055467,10.99357521,275.8972044,0.895797155
4/18/23 0:03,826.9603169,31.887936,10.83266017,276.6554328,0.967534294
4/18/23 0:03,827.1212302,31.91317417,10.82003986,264.7969017,0.923007591
4/18/23 0:03,827.2064315,31.92421772,10.9178487,272.2851314,0.933962448
4/18/23 0:03,827.0739125,31.90055765,10.70960974,267.9660143,1.09121865
4/18/23 0:03,827.0076646,31.88951634,10.74905117,270.087246,1.163309186
4/18/23 0:03,827.0644711,31.80117048,10.75851416,273.102981,1.191225946
4/18/23 0:03,827.0739281,31.80116832,10.76009033,270.1383601,1.162601576
4/18/23 0:03,827.0739317,31.8011713,10.80742178,263.0249648,1.229745169
4/18/23 0:03,827.1685721,31.8169447,10.77586909,272.3618311,1.288406174
4/18/23 0:03,827.0644389,31.80116512,10.75693523,278.0014295,1.361202133
4/18/23 0:03,827.0833789,31.80116512,10.61337387,274.9601135,1.3452999
4/18/23 0:03,827.0739125,31.79959215,10.80742334,270.9561924,1.361909893
4/18/23 0:03,826.9981968,31.7869705,10.83266017,272.3021947,1.289819374
4/18/23 0:03,827.0739317,31.99995041,10.66070852,276.7065482,1.312083302
4/18/23 0:04,826.9982004,31.79801702,10.70803461,278.367784,1.344594593
4/18/23 0:04,827.0739281,31.99994504,10.70487735,274.9686538,1.239638987
4/18/23 0:04,827.0549689,31.79958917,10.70645248,278.4699621,1.239991882
4/18/23 0:04,827.1401738,32.01099075,10.75536226,278.3421978,1.2732108
4/18/23 0:04,827.0550011,32.00152554,10.80742334,284.7229799,1.229391305
4/18/23 0:04,826.9792569,31.98574722,10.79164264,280.293049,1.201120281
4/18/23 0:04,827.0454989,31.99994422,10.73169147,270.1468658,1.129029729
4/18/23 0:04,827.0455311,31.99994721,10.80742334,276.6980337,1.118782499
4/18/23 0:04,827.0834017,31.99995041,10.84843931,279.8074994,1.14069273
4/18/23 0:04,826.9035386,31.97470583,10.70960974,281.1449731,1.090865304
4/18/23 0:04,827.1117987,32.01256774,10.79322418,276.7491515,1.084857857
4/18/23 0:04,827.0550011,32.00152554,10.76167082,276.2891105,1.032203748
4/18/23 0:04,827.0454989,31.99994422,11.01723587,283.8199262,1.129029729
4/18/23 0:04,827.0739259,31.90213822,11.06772622,289.0591841,1.1028807
4/18/23 0:04,827.0644617,31.90056086,10.80269156,281.1535134,1.091219168
4/18/23 0:04,827.0644331,31.90213203,10.99515257,297.084084,1.102525969
4/18/23 0:04,827.0833731,32.00152159,10.89260874,294.0939059,1.114187584
4/18/23 0:04,827.0644617,31.90213919,10.89577017,298.9497943,0.934317179
4/18/23 0:04,827.1969615,31.92737438,10.91942703,308.1758947,0.807804821
4/18/23 0:04,827.0834017,31.90213919,10.94625292,317.2742686,0.790490456
4/18/23 0:04,827.1496402,31.91317417,10.95413601,326.7303867,0.889789608
4/18/23 0:04,827.2158729,31.92421772,10.96675312,276.3316965,0.895443742
4/18/23 0:04,827.0833789,31.79801084,10.96517955,260.9718313,1.063653934
4/18/23 0:04,827.0739089,31.79801084,10.84370052,254.6507101,1.090511024
4/18/23 0:04,827.0644581,31.79801166,10.96359966,261.3211366,1.145639172
4/18/23 0:04,827.0644581,31.80116832,10.98884342,255.0681478,1.14634593
4/18/23 0:04,827.0833789,31.79801084,10.96675312,273.2392683,1.173555982
4/18/23 0:04,827.054994,31.80116691,10.96675729,285.6600643,1.15730087
4/18/23 0:04,827.0644711,31.79959215,10.96675848,277.490311,1.031850336
4/18/23 0:04,827.0739089,31.70019962,11.01250564,282.090558,0.806391304
4/18/23 0:04,827.0644675,31.70020439,11.01408874,280.7531185,0.895445144
4/18/23 0:04,827.1117938,31.70493782,10.95414159,263.4764611,0.863993874
4/18/23 0:04,827.0834017,31.70178175,10.91785727,276.7065482,0.796497936
4/18/23 0:04,827.0644389,31.70019962,10.8957616,260.8440637,0.654790103
4/18/23 0:04,827.0549975,31.69862844,10.96044933,253.705122,0.735009363
4/18/23 0:04,827.0549975,31.69862844,10.96360599,263.4338932,0.824415214
4/18/23 0:04,827.0644389,31.50142051,10.94309246,272.2766085,0.638534491
4/18/23 0:04,826.9697869,31.48880184,10.96359966,267.9915458,0.654790587
4/18/23 0:04,827.0739223,31.50300108,10.94466825,272.3021895,0.708504684
4/18/23 0:04,827.0644617,31.5014267,10.96518335,257.1553302,0.819114408
4/18/23 0:04,827.0076646,31.49827145,10.84212979,253.7562494,0.99545234
4/18/23 0:04,827.0550203,31.5014267,10.84528742,261.0144668,1.006053934
4/18/23 0:04,827.0455374,31.49984859,10.80268939,259.9155047,0.978136256
4/18/23 0:04,827.0644653,31.50300324,10.84528325,262.1219434,0.989797754
4/18/23 0:04,827.0644389,31.49984457,10.84212219,272.2681112,0.978135288
4/18/23 0:04,827.0549689,31.50142051,10.92100536,265.6999264,1.047044942
4/18/23 0:04,827.0076668,31.48722589,10.85474727,269.6186897,0.923008041
4/18/23 0:04,827.0833789,31.50142051,10.84370052,266.6455402,0.851977661
4/18/23 0:04,827.2158729,31.42411806,10.96990978,272.2681112,0.841022804
4/18/23 0:04,827.017131,31.48880325,10.93205114,269.5590493,0.949865115
4/18/23 0:04,827.0739089,31.50142051,11.11504947,275.3605137,1.201473176
4/18/23 0:04,827.0834017,31.4004612,11.11505327,277.1069484,1.090865755
4/18/23 0:04,827.0833825,31.40045799,11.06457209,294.8436025,1.191225946
4/18/23 0:04,826.9982027,31.39730252,11.06772279,277.0813814,1.085210769
4/18/23 0:04,826.9319619,31.37521885,10.9967347,276.5532065,0.974249384
4/18/23 0:04,827.1401738,31.41307987,11.00304579,278.8959344,1.113128364
4/18/23 0:04,827.0833789,31.39730074,11.01092731,285.6429958,0.818406332
4/18/23 0:04,827.0739281,31.39887989,11.01566074,283.8028976,0.725113726
4/18/23 0:04,827.0739281,31.39887989,11.01566074,297.0755836,0.917707319
4/18/23 0:04,827.0739317,31.39888287,11.01724443,285.6685853,0.81840765
4/18/23 0:05,827.0644639,31.39887847,10.99042272,272.285154,0.761865585
4/18/23 0:05,827.0739281,31.39887989,11.05983493,286.920869,0.90639905
4/18/23 0:05,827.007674,31.29002631,10.9935796,288.1476191,0.863640127
4/18/23 0:05,827.1969807,31.32157743,10.99042175,285.6600591,0.989444008
4/18/23 0:05,827.0739031,31.29948854,11.06614408,277.4902768,1.036090002
4/18/23 0:05,826.9130278,31.47618532,11.01408777,264.779902,0.961881027
4/18/23 0:05,827.1023224,31.31211199,11.0771892,269.6442445,0.977429397
4/18/23 0:05,827.0360862,31.29634,11.06299316,280.7531185,1.189812963
4/18/23 0:05,827.1117924,31.4146582,11.12452005,287.4831403,1.17355685
4/18/23 0:05,827.0455182,31.297912,11.06614826,304.7171756,1.022308645
4/18/23 0:05,827.0360482,31.297912,11.08507869,292.7734576,1.063654385
4/18/23 0:05,827.0644711,31.29791416,11.11031984,295.35475,0.889437129
4/18/23 0:05,826.9224714,31.38625897,11.0992751,286.9379202,1.056940162
4/18/23 0:05,827.1591066,31.22061051,11.13556241,286.188232,0.966474206
4/18/23 0:05,827.0171176,31.20009996,11.04090129,293.667942,0.962586467
4/18/23 0:05,826.894082,31.37837313,11.04406556,300.6791573,0.907106659
4/18/23 0:05,827.1023095,31.41149938,11.12609622,304.3849336,0.837489462
4/18/23 0:05,827.0360482,31.297912,11.11505268,303.3796846,0.978489151
4/18/23 0:05,826.8373023,31.29002906,11.13398468,300.6706447,0.906046655
4/18/23 0:05,827.2442949,31.3326174,11.2033951,293.3357109,0.901804752
4/18/23 0:05,826.9224977,31.27425194,11.03933153,286.8442168,0.90675333
4/18/23 0:05,827.2064315,31.223763,11.09138404,298.5238046,0.86823324
4/18/23 0:05,827.0644639,31.19852342,11.06457089,298.5067812,0.867527015
4/18/23 0:05,827.0739187,31.19694971,10.98726829,294.4857972,0.839963601
4/18/23 0:05,827.0739281,31.29949033,10.94624755,290.9503881,0.923008041
4/18/23 0:05,827.0833825,31.19852699,10.91627573,290.8055605,0.989091079
4/18/23 0:05,827.0834075,31.29476167,10.94467556,291.827878,1.005347192
4/18/23 0:05,827.0928587,31.19852565,10.99042495,294.085397,1.035737641
4/18/23 0:05,827.0739125,31.20010294,10.94467138,289.0932382,0.989797838
4/18/23 0:05,827.1496402,31.21271946,10.85474407,283.794383,1.119488389
4/18/23 0:05,827.036079,31.19694926,10.88945662,281.5198204,1.089805334
4/18/23 0:05,827.0644675,31.0975609,10.89103614,287.8665171,0.989091613
4/18/23 0:05,827.0644389,31.19852163,10.89733993,286.9208517,1.063653934
4/18/23 0:05,827.0928587,31.11017965,10.94625076,283.8029149,1.113128464
4/18/23 0:05,827.0644617,31.20010614,10.99042711,289.0762095,1.10252737
4/18/23 0:05,827.0644487,31.20010398,11.04248603,287.3212865,1.058000767
4/18/23 0:05,827.0455562,31.19852878,11.06457149,298.9242306,0.940324743
4/18/23 0:05,827.1212302,31.21271946,10.91469204,293.676465,1.262608421
4/18/23 0:05,827.0455374,31.09756015,10.96518119,292.3560288,1.200767386
4/18/23 0:05,827.0455374,31.20483659,11.07561191,299.9379857,1.242113192
4/18/23 0:05,826.9887269,31.18748128,11.05510471,297.4418918,1.162248163
4/18/23 0:05,827.0644675,31.19852878,10.94309722,301.0539989,1.12973789
4/18/23 0:05,827.0644711,31.20010294,10.89576696,301.0539764,1.047399223
4/18/23 0:05,827.0550011,31.20010294,10.96675848,299.8528017,1.09121865
4/18/23 0:05,827.0739031,31.20167732,10.94309149,301.1987815,0.97884203
4/18/23 0:05,827.0739317,31.20010614,11.06930552,290.9248481,1.130797977
4/18/23 0:05,826.8562365,31.16224289,10.99200068,296.6752124,1.141046076
4/18/23 0:05,826.988721,31.19063459,11.00619455,303.3115212,1.044218276
4/18/23 0:05,827.0644389,31.20009996,10.93993579,304.7256813,1.08591706
4/18/23 0:05,827.0360352,31.19852267,11.06298943,303.0303849,1.14634558
4/18/23 0:05,826.8562365,31.06127739,10.90681372,298.7879348,1.08697855
4/18/23 0:05,827.0550011,31.09913744,11.01724123,297.0755952,0.918414495
4/18/23 0:05,827.0455374,31.19694971,10.94467243,303.7800763,0.906399567
4/18/23 0:05,826.9792569,31.08493745,10.98095653,307.7925321,0.950218544
4/18/23 0:05,827.0550074,31.09756015,11.01408561,300.2702277,0.917001011
4/18/23 0:05,827.0549689,31.09913208,11.0156623,306.8639469,0.835015323
4/18/23 0:05,827.1307002,31.11175396,11.0188142,306.8469267,0.835015323
4/18/23 0:05,827.1874915,31.12437345,11.08980571,317.189044,0.918060215
4/18/23 0:05,827.036054,31.09597959,11.06457089,297.0585428,0.862579706
4/18/23 0:05,827.0455562,31.09913923,11.01251041,291.819355,1.00499378
4/18/23 0:06,826.9792698,31.08809389,10.92731928,289.6384519,1.101466749
4/18/23 0:06,827.0549631,31.09913349,10.89418707,290.5584884,1.118781548
4/18/23 0:06,827.0644617,31.09756231,10.84213076,292.7649636,1.074256763
4/18/23 0:06,827.0265876,31.09755613,10.84054863,299.4608955,1.004992378
4/18/23 0:06,827.0266162,31.0975609,10.80426609,296.6752176,1.021956184
4/18/23 0:06,827.0360804,30.99975109,10.84370909,290.8141007,0.967181816
4/18/23 0:06,827.0455374,31.09598182,10.8421286,289.0847209,1.058000767
4/18/23 0:06,827.1117987,31.11175798,10.85790237,291.8874962,1.00782038
4/18/23 0:06,827.0265782,31.09755695,10.8389735,295.3462154,0.989090662
4/18/23 0:06,827.0171462,31.0975609,10.91470157,300.2617216,1.162249115
4/18/23 0:06,826.9130278,31.08494043,10.88156996,290.5585399,1.14069273
4/18/23 0:06,827.0360352,31.09597884,10.89103242,294.0683478,1.112774184
4/18/23 0:06,827.0455562,31.0975609,10.99200164,297.7315788,1.246000831
4/18/23 0:06,826.9698191,31.0833621,11.05352697,297.4845099,1.162249098
4/18/23 0:06,827.0550011,31.10071339,11.01881956,298.5323566,1.212428968
4/18/23 0:06,826.9414055,31.28529251,11.11031768,308.1844093,1.245646534
4/18/23 0:06,827.036029,31.09913208,11.16237556,314.5055389,1.273563278
4/18/23 0:06,827.045524,31.09597959,11.11031865,308.1758915,1.245999963
4/18/23 0:06,827.0265974,31.0991361,10.99199851,308.3122199,1.162248681
4/18/23 0:06,827.0265782,31.09913528,10.96991298,302.1273719,1.290172787
4/18/23 0:06,827.0455311,31.09755911,10.96675848,302.5022148,1.312436264
4/18/23 0:06,827.0360482,31.29949033,11.06614826,299.3331195,1.284518585
4/18/23 0:06,827.0360352,31.29948817,11.01408502,303.0389079,1.338939106
4/18/23 0:06,827.1401702,31.11017562,11.02039253,301.1987867,1.263315179
4/18/23 0:06,826.998179,31.09124541,11.05825839,302.0847666,1.238225269
4/18/23 0:06,827.045524,31.29633464,11.06457089,306.4806152,1.227624042
4/18/23 0:06,827.036029,31.29948951,11.08980571,309.6667223,1.212781446
4/18/23 0:06,826.9035386,31.27267279,11.01881956,306.0291093,1.301127994
4/18/23 0:06,826.9035386,31.27582945,11.04406332,306.4550527,1.22903796
4/18/23 0:06,826.9887362,31.29318334,11.11190235,308.7126112,1.355549533
4/18/23 0:06,826.8846178,31.2774086,11.1166316,312.6484237,1.372158375
4/18/23 0:06,827.1685515,31.32473089,11.14186679,312.2905922,1.257661045
4/18/23 0:06,827.0265876,31.29948951,11.1166278,313.7047386,1.33893914
4/18/23 0:06,826.9981839,31.19852267,11.11505052,315.4170922,1.19051842
4/18/23 0:06,827.0265876,31.20325424,11.16395389,306.4465265,1.085563648
4/18/23 0:06,826.9697976,31.19063497,11.11031947,308.2695973,1.238225269
4/18/23 0:06,827.0265782,30.99974573,11.11505268,306.463564,1.273917141
4/18/23 0:06,826.9319414,31.19379081,11.11978387,305.1260782,1.451668689
4/18/23 0:06,827.0265782,31.20167911,11.2428355,315.0507699,1.480292625
4/18/23 0:06,827.0171212,31.20010294,11.29016851,316.3712267,1.485947177
4/18/23 0:06,826.9887461,31.09756015,11.20970806,312.1031983,1.612458317
4/18/23 0:06,827.0076574,31.09756015,11.21128639,305.1090443,1.452375882
4/18/23 0:06,826.9982161,31.09756015,11.11347755,304.3082698,1.371451199
4/18/23 0:06,827.0928587,31.11017965,11.1245211,304.32529,1.372158024
4/18/23 0:06,827.0171176,31.09755613,11.11820613,300.662096,1.383818672
4/18/23 0:06,826.9981839,31.09755479,11.11189385,300.6535787,1.382405255
4/18/23 0:06,826.9508755,31.08493745,11.22075317,301.0624877,1.413149967
4/18/23 0:06,826.8846178,31.07389688,11.31225405,307.3921609,1.458383846
4/18/23 0:06,827.0076798,31.09913744,11.43372988,312.2565292,1.436120269
4/18/23 0:06,827.0644724,31.1054486,11.3722038,311.8646532,1.399015331
4/18/23 0:06,826.9414055,31.08809173,11.4242625,311.5068551,1.290526066
4/18/23 0:06,826.9414055,30.9855479,11.40533206,315.5704404,1.458382912
4/18/23 0:06,827.017114,30.99816836,11.42899369,320.0684973,1.612104404
4/18/23 0:06,827.14018,31.00921415,11.47474845,328.2127001,1.613165009
4/18/23 0:06,827.1117602,31.00921012,11.35957634,320.0940437,1.607509906
4/18/23 0:06,827.026584,30.89562453,11.3848195,317.2912909,1.507856491
4/18/23 0:06,827.0171274,30.8972051,11.56151374,312.622843,1.409263146
4/18/23 0:06,827.0171082,30.89878023,11.51418445,317.2742397,1.317736568
4/18/23 0:06,827.0171274,30.79781555,11.38640006,311.8391144,1.541074975
4/18/23 0:06,827.0360745,30.80254935,11.38955792,306.7191744,1.738616211
4/18/23 0:07,827.0171176,30.79938985,11.38639843,306.8554239,1.607863319
4/18/23 0:07,827.0360482,30.79781234,11.40848396,306.838421,1.262962284
4/18/23 0:07,826.8940686,30.67318358,11.41006445,326.2448114,1.140692213
4/18/23 0:07,827.0076668,30.69684684,11.43688438,322.683839,1.558743553
4/18/23 0:07,827.0076798,30.70000328,11.48894285,322.7008966,1.524819229
4/18/23 0:07,826.9887362,30.49649574,11.55836021,315.4341583,1.485594299
4/18/23 0:07,827.0076476,30.69684364,11.49052059,319.1399069,1.607863319
4/18/23 0:07,827.007644,30.59745826,11.43688058,317.1720205,1.584894035
4/18/23 0:07,827.1590878,30.52015267,11.41163846,308.4485072,1.490186894
4/18/23 0:07,827.0076476,30.60061075,11.24125873,310.0330305,1.387705944
4/18/23 0:07,827.0076574,30.49649261,11.53627475,330.6747105,1.497255547
4/18/23 0:07,827.0171082,30.49649179,11.55678031,329.6013118,1.624119415
4/18/23 0:07,827.0171082,30.40025651,11.48894546,324.677291,1.69620945
4/18/23 0:07,827.0360674,30.49807094,11.43688281,323.3398173,1.712112267
4/18/23 0:07,826.9035636,30.47283269,11.41164695,325.3418093,1.580300872
4/18/23 0:07,827.0265876,30.29771186,11.55519878,329.6098175,1.558036411
4/18/23 0:07,827.0360862,30.39710619,11.58202564,333.6137934,1.652037628
4/18/23 0:07,826.988759,30.38764,11.47317228,335.0364833,1.641789513
4/18/23 0:07,827.0360862,30.39710619,11.55836021,332.4040956,1.50856425
4/18/23 0:07,827.0549689,30.39710142,11.43688118,330.1465082,1.507855957
4/18/23 0:07,827.0455182,30.29771268,11.38797519,329.1923887,1.436826611
4/18/23 0:07,827.0171274,30.196748,11.38955673,329.2009289,1.435766957
4/18/23 0:07,827.0171082,30.19832551,11.41321895,327.1648704,1.329044838
4/18/23 0:07,827.0171274,30.29613756,11.36273941,324.540992,1.414210522
4/18/23 0:07,827.0171462,30.29614069,11.29174625,324.5495319,1.413857677
4/18/23 0:07,827.0171274,30.196748,11.28859123,324.558038,1.497255547
4/18/23 0:07,826.9319677,30.29613972,11.51261148,325.350327,1.443188305
4/18/23 0:07,826.9414055,30.18570364,11.53469322,322.1641685,1.469337769
4/18/23 0:07,826.9982161,30.29929422,11.43688281,333.7330468,1.625180104
4/18/23 0:07,827.0265782,30.29613674,11.43530605,329.6098348,1.596555634
4/18/23 0:07,827.0076476,30.19832231,11.33591568,322.6923447,1.524818428
4/18/23 0:07,826.9887076,30.09735681,11.26334583,320.9629764,1.436472747
4/18/23 0:07,826.9319427,30.17939389,11.41479847,326.2873954,1.484533577
4/18/23 0:07,826.8656944,30.07685222,11.27123927,321.2356187,1.465451381
4/18/23 0:07,826.9697677,30.19832231,11.31382858,326.2873974,1.435765922
4/18/23 0:07,826.9982004,30.20148277,11.34065447,319.1399274,1.398308773
4/18/23 0:07,826.9887076,30.19832231,11.43845951,324.9158144,1.497254512
4/18/23 0:07,826.9887269,30.09735763,11.36588809,324.9413749,1.497254963
4/18/23 0:07,826.9792376,30.09735681,11.11978447,322.1556539,1.458029048
4/18/23 0:07,826.9982062,30.19675113,11.33592044,321.3804483,1.425165946
4/18/23 0:07,826.9792761,30.09736083,11.29016956,318.2028248,1.436473649
4/18/23 0:07,827.0076476,30.09735681,11.3406459,324.4131899,1.372510402
4/18/23 0:07,827.0171462,30.19675113,11.28701603,327.9571562,1.383113315
4/18/23 0:07,827.0171462,30.19832946,11.33749878,329.2179661,1.387000587
4/18/23 0:07,827.0171274,30.09893678,11.33433898,332.0292475,1.300421269
4/18/23 0:07,827.0171462,30.19675113,11.28701603,341.4087219,1.301128528
4/18/23 0:07,827.0171176,30.19674398,11.28700649,337.0384121,1.339999244
4/18/23 0:07,827.0549904,30.10682561,11.57255923,347.6191151,1.455909774
4/18/23 0:07,826.9225036,30.08474208,11.54731666,341.7239437,1.456970279
4/18/23 0:07,827.0928431,30.00427723,11.48894129,343.7088418,1.513863487
4/18/23 0:07,826.9698061,30.09736083,11.26334747,337.9414714,1.579947026
4/18/23 0:07,827.1401702,30.02320863,11.45107662,340.4716053,1.45237498
4/18/23 0:07,826.9792725,29.99639712,11.38640424,333.7415923,1.612105439
4/18/23 0:07,826.9697927,29.99639072,11.27596711,321.261149,1.477465675
4/18/23 0:07,826.9697998,30.09893812,11.28543352,323.9020713,1.803638294
4/18/23 0:07,827.0644389,30.09893276,11.28700649,322.5475311,1.553442447
4/18/23 0:07,826.8467472,30.07369675,11.31225561,326.1936992,1.479586284
4/18/23 0:07,827.0076798,29.89858307,11.28543352,322.9820264,1.634367931
4/18/23 0:07,827.1496308,29.9112004,11.28385303,319.8299514,1.585600643
4/18/23 0:07,827.0076476,29.99954559,11.21286308,322.9649515,1.634720409
4/18/23 0:08,827.0076762,29.89700653,11.26177227,322.6838732,1.485947711
4/18/23 0:08,826.9698177,29.89385106,11.35958468,324.9328797,1.496195476
4/18/23 0:08,827.2253491,30.03425322,11.42110368,328.0763806,1.458382561
4/18/23 0:08,826.9887076,29.99638893,11.43688118,327.9656277,1.458029048
4/18/23 0:08,826.9887362,29.89700653,11.31225502,324.4217386,1.372158458
4/18/23 0:08,827.0455374,30.01059316,11.29963478,324.575084,1.41385711
4/18/23 0:08,826.9603361,29.99797128,11.33591731,322.7008765,1.485947278
4/18/23 0:08,826.9603549,29.99797441,11.3643161,324.5495319,1.413857677
4/18/23 0:08,827.1117665,30.02005301,11.36115571,317.299797,1.355901577
4/18/23 0:08,826.8278323,29.97430898,11.38640319,316.9164629,1.360850189
4/18/23 0:08,826.9697998,29.89700474,11.36431669,320.9715284,1.383819606
4/18/23 0:08,827.1117853,30.02321042,11.41321992,322.6923672,1.486300189
4/18/23 0:08,826.9887148,29.99954678,11.36746918,330.7002513,1.329044654
4/18/23 0:08,826.9508791,30.00112772,11.43688498,332.9578271,1.387000504
4/18/23 0:08,826.9035256,29.99796808,11.31382701,320.8352004,1.345653763
4/18/23 0:08,826.9603263,29.99638893,11.362733,320.0684748,1.312788742
4/18/23 0:08,826.9603039,29.89700042,11.35957738,326.7474126,1.283811409
4/18/23 0:08,826.9887269,30.09735763,11.33907077,334.1249324,1.317383156
4/18/23 0:08,826.9603227,29.99796905,11.34065007,322.7093874,1.21278198
4/18/23 0:08,826.9319177,30.08947015,11.31067214,328.4427102,1.255187674
4/18/23 0:08,827.036029,29.91277553,11.36588966,334.1249151,1.274270036
4/18/23 0:08,826.9887398,29.99954857,11.36589026,330.1380142,1.158008029
4/18/23 0:08,827.1307002,30.02320863,11.31067192,326.7559299,1.284518135
4/18/23 0:08,826.9130014,29.99639072,11.31540631,329.6098143,1.470397956
4/18/23 0:08,826.9792761,29.99797128,11.34223064,333.3411696,1.497255547
4/18/23 0:08,826.9698061,29.99797128,11.60410961,343.6662667,1.525172741
4/18/23 0:08,826.9414113,29.99796905,11.6056857,346.2390123,1.497255046
4/18/23 0:08,826.9508755,29.99796808,11.50945423,348.0024415,1.442480679
4/18/23 0:08,826.9603361,29.99639295,11.38640006,336.3995059,1.345300934
4/18/23 0:08,826.9414149,29.99797441,11.29016792,330.6662044,1.481000335
4/18/23 0:08,826.9697905,29.99954462,11.26334486,336.3994918,1.481705608
4/18/23 0:08,826.8088959,29.87334169,11.24441599,326.3896249,1.553443248
4/18/23 0:08,826.9508755,29.89858091,11.11663101,323.1097823,1.328691425
4/18/23 0:08,826.9319449,29.89700653,11.2633506,320.9715252,1.3396473
4/18/23 0:08,827.1780215,29.9332843,11.28069793,326.7729759,1.246352775
4/18/23 0:08,826.9414055,29.99796808,11.31856201,332.4125844,1.212781897
4/18/23 0:08,826.8751635,29.9853494,11.27596935,330.6917565,1.31738374
4/18/23 0:08,826.8088923,29.97430898,11.19078075,323.0757503,1.340000579
4/18/23 0:08,826.9697677,29.99954559,11.21601497,321.3548536,1.240698707
4/18/23 0:08,826.9603227,29.99796905,11.21759748,322.6923672,1.240699174
4/18/23 0:08,826.9697927,29.99639072,11.15922307,324.0213352,1.212428567
4/18/23 0:08,826.9792569,29.99954641,11.16237876,329.7290794,1.191932354
4/18/23 0:08,827.0360674,30.01216911,11.2254866,326.7644618,1.190165875
4/18/23 0:08,826.8467472,29.97430719,11.18604635,322.7093938,1.17355685
4/18/23 0:08,826.8467535,30.08631729,11.28543456,321.7467654,1.074609759
4/18/23 0:08,827.0644389,30.01216508,11.3012067,321.7382078,1.074962137
4/18/23 0:08,827.1307029,30.11944436,11.31067236,321.8745265,1.078143218
4/18/23 0:08,826.8656872,30.07369675,11.24283766,322.462356,1.129737356
4/18/23 0:08,826.9982027,30.09578027,11.26334523,325.3332573,1.190872266
4/18/23 0:08,826.9982062,29.99955036,11.16711532,321.3463821,1.290173671
4/18/23 0:08,826.8562172,30.09104885,11.24125933,317.2827743,1.213135726
4/18/23 0:08,827.0076798,30.09893812,11.04406332,315.4341358,1.191225946
4/18/23 0:08,827.0266104,30.097363,10.99673567,315.4341531,1.147406969
4/18/23 0:08,827.0076476,30.09577848,11.11504947,315.4596758,1.19051832
4/18/23 0:08,827.007644,30.0973586,11.06772279,317.2912909,1.21278198
4/18/23 0:08,826.9981776,30.09735681,11.06772338,317.2997913,1.212781446
4/18/23 0:08,826.9981776,30.09735681,11.04247963,311.8390798,1.174616086
4/18/23 0:08,826.9792949,30.09736158,11.16553699,308.3122368,1.17391073
4/18/23 0:08,826.9792439,30.09577952,11.11189385,304.7171639,1.084503577
4/18/23 0:08,826.9603227,30.0973586,11.06299256,311.8475996,1.101466415
4/18/23 0:09,826.9792439,30.09577952,11.21128579,315.4341124,1.189811661
4/18/23 0:09,826.9887327,30.09578027,11.11505364,313.6962381,1.339646366
4/18/23 0:09,826.9981776,30.09735681,11.26807605,311.8390798,1.301127059
4/18/23 0:09,826.9887269,30.09735763,11.24126194,315.4426471,1.147406101
4/18/23 0:09,826.9982098,30.09893812,11.16553759,311.8476318,1.102880266
4/18/23 0:09,826.9129956,30.08789241,11.2002444,317.2827626,1.046338634
4/18/23 0:09,826.9981968,30.09735763,11.21128318,319.5488216,0.907459221
4/18/23 0:09,827.0644523,30.11155687,11.15764757,317.6490914,1.003579295
4/18/23 0:09,826.9697927,30.09578027,11.35958051,319.1569496,1.229390972
4/18/23 0:09,826.9982161,30.09736083,11.31540855,316.3797553,1.239639504
4/18/23 0:09,826.8940748,30.0957825,11.30752166,311.8305915,1.339293454
4/18/23 0:09,827.0076798,30.09735979,11.28859018,312.2480062,1.257308567
4/18/23 0:09,827.1306966,29.91908826,11.35958051,307.4006601,1.202180469
4/18/23 0:09,826.8467665,30.0752759,11.3627368,310.5868134,1.24635416
4/18/23 0:09,827.0644389,30.10840036,11.43688118,309.2577991,1.09086437
4/18/23 0:09,826.9792439,29.89700042,11.21128579,305.6457318,1.157653782
4/18/23 0:09,826.9792627,29.89542522,11.21759748,304.7001349,1.08627094
4/18/23 0:09,826.9792439,29.89542447,11.23810311,310.970127,1.057293074
4/18/23 0:09,826.9035636,29.8828087,11.43215572,319.5488558,1.118429687
4/18/23 0:09,826.9792949,30.09578563,11.34065067,314.4970674,1.005700605
4/18/23 0:09,826.8088923,29.87176515,11.16396343,310.9616499,1.057647855
4/18/23 0:09,826.8657064,29.89542961,11.28859339,312.2139573,1.25766243
4/18/23 0:09,826.9698249,29.89700653,11.28701603,314.0796213,1.113482311
4/18/23 0:09,826.9603263,30.09735681,11.38797676,321.7637768,1.074255378
4/18/23 0:09,827.1117665,29.92066585,11.48420831,321.0822524,0.999338343
4/18/23 0:09,826.9792698,29.89858307,11.46212553,314.1136907,1.119489257
4/18/23 0:09,826.8751527,29.88123022,11.41953369,312.5376808,1.059061072
4/18/23 0:09,826.8278135,30.07211946,11.33749565,315.4426644,1.146699793
4/18/23 0:09,826.9887327,29.89700355,11.33907174,311.8475996,1.146699426
4/18/23 0:09,827.0076762,29.89700653,11.29174625,315.4511785,1.190873134
4/18/23 0:09,827.1401666,29.91908826,11.26334523,311.8561226,1.146346014
4/18/23 0:09,827.0076762,29.8954282,11.21444618,301.5906896,1.162602527
4/18/23 0:09,827.0833789,29.90962125,11.26018917,307.4176836,1.201826589
4/18/23 0:09,827.007644,29.89700355,11.28701066,312.2565228,1.256601408
4/18/23 0:09,827.007644,29.89700355,11.38639783,310.5697437,1.244939792
4/18/23 0:09,827.0171462,29.8954282,11.48579036,317.2912941,1.262963235
4/18/23 0:09,827.0928203,29.89857771,11.44003307,315.0252094,1.388059223
4/18/23 0:09,826.8846272,29.87334169,11.29489874,311.4898208,1.312789676
4/18/23 0:09,826.9982062,29.8954282,11.29174625,310.1693725,1.339293888
4/18/23 0:09,826.9982161,29.89542745,11.2870129,308.3207429,1.239639504
4/18/23 0:09,826.9792761,29.89542745,11.2649258,303.0644801,1.201827557
4/18/23 0:09,826.9887076,29.89700176,11.38482009,316.9079141,1.361202133
4/18/23 0:09,827.0455052,29.9096223,11.37535592,308.3547801,1.239638569
4/18/23 0:09,826.9603361,29.89700578,11.3879784,312.2394889,1.256601841
4/18/23 0:09,826.9698061,29.89700578,11.38482173,318.2283938,1.141045725
4/18/23 0:09,826.9698249,29.89700653,11.33592044,308.33778,1.139985988
4/18/23 0:09,826.9508849,29.89858486,11.43688594,309.2578506,1.091925943
4/18/23 0:09,826.9603549,29.8954282,11.43846428,315.970849,1.185925758
4/18/23 0:09,827.0265876,29.81181003,11.44634639,315.9452543,1.185217597
4/18/23 0:09,826.9697869,29.79761302,11.51260612,317.4275762,1.240345745
4/18/23 0:09,826.9414113,29.79603566,11.67983388,322.7008902,1.255894649
4/18/23 0:09,826.9508661,29.7960379,11.78237995,320.8437407,1.311376126
4/18/23 0:09,827.0360611,29.81023706,11.71927427,326.2959236,1.20218087
4/18/23 0:09,827.0265652,29.9096223,11.81234857,324.941389,1.228683712
4/18/23 0:09,826.9603299,29.69664969,11.4826343,315.9793495,1.344947422
4/18/23 0:09,826.8751536,29.68402959,11.37220298,314.0625753,1.485240886
4/18/23 0:09,827.0266032,29.70927119,11.39902291,315.4852588,1.527293034
4/18/23 0:09,826.9603039,29.69664536,11.58675214,316.7545833,1.54107404
4/18/23 0:09,826.761571,29.65878822,11.72085678,322.6327352,1.396541927
4/18/23 0:09,826.9698249,29.59726192,11.41322052,318.6202879,1.316677349
4/18/23 0:10,827.0455374,29.60830472,11.44319614,313.5684569,1.327985184
4/18/23 0:10,827.0455432,29.60672736,11.41006646,311.8135507,1.435413628
4/18/23 0:10,827.1023045,29.61461402,11.45739233,321.0567164,1.640021865
4/18/23 0:10,826.8372835,29.5720198,11.53627475,310.1693814,1.624473279
4/18/23 0:10,826.9982125,29.59568463,11.60253545,324.9414147,1.513158314
4/18/23 0:10,826.9792376,29.5988331,11.58990776,320.4092398,1.497607925
4/18/23 0:10,826.9887327,29.69664849,11.36115884,316.3542,1.485593498
4/18/23 0:10,826.9697677,29.5988331,11.53626834,318.1176119,1.663344429
4/18/23 0:10,826.9603039,29.49786864,11.48420831,314.3777512,1.712464745
4/18/23 0:10,826.9413926,29.49786864,11.63092633,329.7375907,1.685254242
4/18/23 0:10,826.9792891,29.49629545,11.58202467,327.3011899,1.636135311
4/18/23 0:10,826.9697998,29.49787058,11.61357378,326.5003723,1.748863876
4/18/23 0:10,826.789981,29.47263099,11.58676063,323.1012935,1.597616622
4/18/23 0:10,826.9508599,29.49787058,11.63250898,323.8935484,1.558744037
4/18/23 0:10,826.8467401,29.59568061,11.63250302,322.5475279,1.361202667
4/18/23 0:10,826.9508661,29.49787162,11.61042293,327.9571393,1.361203167
4/18/23 0:10,826.9224656,29.5988363,11.61199806,328.0934383,1.524818878
4/18/23 0:10,826.9508527,29.49629106,11.60884236,328.0593515,1.525525653
4/18/23 0:10,827.0360674,29.50891517,11.52207454,326.8155997,1.48630069
4/18/23 0:10,826.8562423,29.38270904,11.37535965,311.8391056,1.542135513
4/18/23 0:10,826.9508661,29.49787162,11.58360084,317.1464636,1.470045044
4/18/23 0:10,826.9603039,29.39532481,11.48262998,329.6268433,1.624119065
4/18/23 0:10,826.7331839,29.47263241,11.51261148,325.7507272,1.583481236
4/18/23 0:10,826.9603361,29.49629329,11.58517917,329.7376197,1.558037312
4/18/23 0:10,827.0455052,29.39847909,11.53469106,331.0750817,1.414563
4/18/23 0:10,826.9035578,29.3842864,11.52838526,325.35885,1.514218235
4/18/23 0:10,827.1117853,29.4189886,11.58044194,322.956451,1.679600608
4/18/23 0:10,826.9697998,29.29751553,11.53785204,319.0206655,1.536834323
4/18/23 0:10,826.988759,29.29909468,11.55993757,317.1890645,1.414211006
4/18/23 0:10,826.9603039,29.29593526,11.48262998,317.4275645,1.552735722
4/18/23 0:10,826.8278073,29.39217247,11.58202147,322.6923736,1.486654003
4/18/23 0:10,826.8845914,29.38270606,11.60726403,325.3417803,1.514217384
4/18/23 0:10,826.9698249,29.39690687,11.61199962,322.5560798,1.552737091
4/18/23 0:10,827.0550074,29.40794729,11.54889186,330.870662,1.668646119
4/18/23 0:10,826.8183623,29.37166549,11.48736869,324.293971,1.613518856
4/18/23 0:10,827.0550074,29.39848207,11.55836185,325.8784831,1.541781666
4/18/23 0:10,826.9792698,29.29751553,11.53469538,333.3326667,1.441774337
4/18/23 0:10,826.8940556,29.28646982,11.54573677,333.2474509,1.483826485
4/18/23 0:10,826.9603549,29.29594137,11.5851823,330.6917734,1.458383796
4/18/23 0:10,826.9792569,29.29751337,11.58517597,330.1380025,1.361555996
4/18/23 0:10,826.9603361,29.29593824,11.60410961,331.0751107,1.41350383
4/18/23 0:10,826.8089022,29.29120563,11.53785308,333.7330468,1.542135079
4/18/23 0:10,826.9792627,29.29436006,11.53153752,330.6746985,1.328338096
4/18/23 0:10,826.9697677,29.29908849,11.48420726,333.7415609,1.407848728
4/18/23 0:10,826.9603549,29.29594137,11.50629913,327.1563558,1.239993351
4/18/23 0:10,827.1023153,29.32117738,11.56308984,313.7047611,1.558390224
4/18/23 0:10,826.9603361,29.29751657,11.48263534,308.3122199,1.552029831
4/18/23 0:10,826.9508626,29.29751121,11.51418229,311.4983205,1.580299504
4/18/23 0:10,826.8845914,29.28331651,11.52522897,311.8475996,1.485593498
4/18/23 0:10,826.9508849,29.29751731,11.55993854,312.2480287,1.59726321
4/18/23 0:10,826.9603227,29.295936,11.55678128,318.6287819,1.373571174
4/18/23 0:10,826.9603549,29.19655181,11.55993854,325.9040689,1.355902812
4/18/23 0:10,826.8183435,29.27227519,11.53627475,312.2309659,1.240699608
4/18/23 0:10,826.9508626,29.29593526,11.5062954,317.8109445,1.185571043
4/18/23 0:10,826.8278323,29.29436304,11.51103412,317.8280105,1.185572412
4/18/23 0:10,826.9698061,29.29593824,11.52996143,317.8450396,1.129384043
4/18/23 0:10,826.8940677,29.28805016,11.50787314,329.7205672,1.190518954
4/18/23 0:10,826.9698061,29.29593824,11.51576599,330.6747105,1.262255976
4/18/23 0:10,826.9792689,29.29435872,11.53153857,323.6209407,1.227977488
4/18/23 0:10,826.9603419,29.19497132,11.60568891,317.2998054,1.34424078
4/18/23 0:11,826.9982161,29.19654869,11.53469642,315.4341414,1.41350383
4/18/23 0:11,826.9792689,29.19339322,11.5331169,315.425612,1.413150017
4/18/23 0:11,827.0549752,29.31013308,11.53784772,320.9374131,1.317736218
4/18/23 0:11,826.9792627,29.295936,11.5835986,324.0383812,1.580300071
4/18/23 0:11,826.9792439,29.29593526,11.55993482,323.0927504,1.54107404
4/18/23 0:11,826.9887362,29.19497348,11.58360397,320.8181887,1.541782234
4/18/23 0:11,827.0455374,29.00092624,11.5867575,310.0501111,1.508563683
4/18/23 0:11,826.9697677,29.19654466,11.58517276,313.6877184,1.442480228
4/18/23 0:11,826.9603549,28.99619676,11.61042129,312.1032152,1.607511375
4/18/23 0:11,826.9508719,29.19339538,11.66090188,311.7965047,1.848164597
4/18/23 0:11,826.8751501,29.0845374,11.67352056,323.0927673,1.641081836
4/18/23 0:11,826.9603169,29.19654787,11.5867543,334.6786691,1.642141991
4/18/23 0:11,827.1022965,29.01038848,11.55993482,322.4282664,1.597261975
4/18/23 0:11,826.9129835,29.18708064,11.5962175,316.7119949,1.801517417
4/18/23 0:11,826.9887362,29.19655181,11.48736869,311.6261339,1.695857055
4/18/23 0:11,826.9603361,28.99461769,11.36116107,308.1844266,1.759112141
4/18/23 0:11,826.9603227,29.1949705,11.41006326,307.4006601,1.652036693
4/18/23 0:11,826.9697927,28.99461545,11.46054601,308.5762917,1.613518054
4/18/23 0:11,826.9792949,28.99777509,11.53627311,316.5075397,1.712466114
4/18/23 0:11,826.9982027,28.99303712,11.63092946,318.8758198,1.765119255
4/18/23 0:11,826.9887076,28.99776794,11.65932094,322.5645513,1.792682502
4/18/23 0:11,827.1117665,28.99776898,11.55835648,325.8699569,1.874667389
4/18/23 0:11,826.9792949,28.99461843,11.55993854,332.1314888,1.864420593
4/18/23 0:11,826.9792761,28.99619363,11.60726627,326.7815077,1.930856125
4/18/23 0:11,826.960329,28.99303816,11.60726508,325.5973468,1.684194672
4/18/23 0:11,826.9887362,28.89680721,11.60884296,328.212717,1.624473712
4/18/23 0:11,826.9887076,28.89680244,11.60568153,328.8175402,1.781374233
4/18/23 0:11,826.9792949,28.89522888,11.61042129,326.4833488,1.748511131
4/18/23 0:11,826.9603612,28.89680825,11.6309311,324.5410146,1.651684315
4/18/23 0:11,826.9603348,28.89364958,11.58360062,325.8444157,1.558036995
4/18/23 0:11,826.9698249,28.89680721,11.60884296,317.0442562,1.585601661
4/18/23 0:11,826.9792376,28.89995672,11.58675109,313.1936169,1.513863571
4/18/23 0:11,826.9792949,28.89680721,11.38955986,310.1864185,1.507857425
4/18/23 0:11,826.9981776,28.89680244,11.33591568,309.6667223,1.580299537
4/18/23 0:11,826.9603039,28.8968011,11.82654878,314.3692283,1.595495045
4/18/23 0:11,826.9603549,28.89522888,11.73190033,335.2238912,1.436474082
4/18/23 0:11,826.9697739,28.8968011,11.77764436,342.2179994,1.212428133
4/18/23 0:11,826.9698061,28.79583858,11.7318972,334.1590159,1.383112881
4/18/23 0:11,827.1117665,28.81792031,11.73189183,335.6072253,1.218082268
4/18/23 0:11,826.9508527,28.79741468,11.66090344,315.5619227,1.174263275
4/18/23 0:11,826.9508849,28.79584171,11.53942977,322.7094164,1.185218999
4/18/23 0:11,826.7710473,28.78164254,11.64039632,324.9499377,1.468985474
4/18/23 0:11,826.9603227,28.79583634,11.58517694,315.5448767,1.685254676
4/18/23 0:11,826.9508661,28.79741691,11.56151374,314.1136964,1.668292706
4/18/23 0:11,826.9508912,28.79584037,11.48736974,313.4236659,1.6241204
4/18/23 0:11,826.8940999,28.78006421,11.47474786,314.4885501,1.480647023
4/18/23 0:11,826.9508912,28.69487487,11.43215199,317.0101699,1.584894936
4/18/23 0:11,827.1022902,28.8194976,11.65932094,322.7008676,1.397600563
4/18/23 0:11,826.9508398,28.69486868,11.65932295,318.1943039,1.640728073
4/18/23 0:11,826.9508599,28.79741587,11.6845653,325.0777029,1.581007164
4/18/23 0:11,826.9414113,28.69644918,11.67983388,315.1529995,1.641081836
4/18/23 0:11,826.9603549,28.79584171,11.68299114,315.953803,1.723067558
4/18/23 0:11,826.8940748,28.79583858,11.6309317,313.5855029,1.668292706
4/18/23 0:11,826.9224812,28.69329654,11.67983552,321.371931,1.48029361
4/18/23 0:11,826.9413961,28.79583858,11.71138843,321.3719084,1.480646489
4/18/23 0:11,826.9414113,28.79583634,11.62935113,318.6287819,1.372510936
4/18/23 0:11,826.9508661,28.69644903,11.63408359,318.6543372,1.372511437
4/18/23 0:11,826.9508626,28.69644605,11.66090032,317.1549577,1.469690697
4/18/23 0:11,826.7142497,28.78006555,11.6467086,311.7879934,1.202181404
4/18/23 0:11,826.9414149,28.79741766,11.65933048,314.1307335,1.21808357
4/18/23 0:12,826.8183623,28.77375461,11.7034999,317.1890697,1.273918092
4/18/23 0:12,827.0360674,28.80057119,11.53785308,310.0415881,1.318090432
4/18/23 0:12,826.9603299,28.79741587,11.60726523,315.476725,1.414563835
4/18/23 0:12,827.0928515,28.81950043,11.65932616,314.0966439,1.486653702
4/18/23 0:12,827.0360352,28.80845509,11.62619134,310.2460078,1.542487557
4/18/23 0:12,826.9603039,28.7958356,11.53626939,310.5697526,1.536126664
4/18/23 0:12,827.0360732,28.80845904,11.67194543,315.56194,1.684901848
4/18/23 0:12,826.9792376,28.69802333,11.65932094,317.1549778,1.68490073
4/18/23 0:12,826.9603361,28.79583858,11.70349678,320.0855296,1.607864354
4/18/23 0:12,826.8845914,28.78321685,11.68141221,328.7068153,1.712111766
4/18/23 0:12,826.9698249,28.79584171,11.73190033,329.7461595,1.685609024
4/18/23 0:12,826.9697927,28.79583634,11.73189496,323.6294581,1.60751044
4/18/23 0:12,827.0360352,28.80845509,11.76028748,322.7178935,1.43541261
4/18/23 0:12,826.9697739,28.7958356,11.7082264,324.5495118,1.413856308
4/18/23 0:12,826.9697927,28.79741468,11.73031663,324.0213352,1.706457698
4/18/23 0:12,826.9792439,28.7958356,11.65774365,318.0750283,1.59655515
4/18/23 0:12,826.8940614,28.79110374,11.78395604,328.229734,1.613518054
4/18/23 0:12,827.0550074,28.79583858,11.95907196,337.0384467,1.397601597
4/18/23 0:12,826.9603039,28.7958356,11.90542718,325.8784799,1.387352631
4/18/23 0:12,826.9130336,28.58286478,11.83917438,330.1039448,1.228331668
4/18/23 0:12,826.9603156,28.79268087,11.60410618,317.2912844,1.343533237
4/18/23 0:12,826.9887327,28.79583634,11.53153752,317.1634976,1.272857053
4/18/23 0:12,826.9982062,28.69645216,11.53312122,315.4341583,1.190166376
4/18/23 0:12,826.9792627,28.49293746,11.51576375,317.2912909,1.212075222
4/18/23 0:12,826.9697927,28.49293746,11.53311585,315.4341293,1.191225612
4/18/23 0:12,826.9982161,28.69644903,11.44003948,318.6372912,1.129737456
4/18/23 0:12,826.9130014,28.48189391,11.53311585,307.8010603,1.021248558
4/18/23 0:12,826.9982027,28.49293746,11.41006326,301.045447,1.047045476
4/18/23 0:12,827.007644,28.49293746,11.48421144,305.1260782,1.129737022
4/18/23 0:12,827.0644452,28.50871049,11.49683019,306.5061673,1.24246567
4/18/23 0:12,826.9603039,28.49451266,11.46369954,308.3207139,1.239285223
4/18/23 0:12,826.8372893,28.48505139,11.56467137,306.4550636,1.256955271
4/18/23 0:12,826.9697927,28.49609174,11.58044194,307.7925373,1.21278198
4/18/23 0:12,826.8373023,28.57182123,11.55836021,307.4006891,1.301481941
4/18/23 0:12,827.0455432,28.50713849,11.53784928,308.7041023,1.229038076
4/18/23 0:12,826.9508527,28.49609174,11.48421144,303.0389248,1.245999963
4/18/23 0:12,827.0171332,28.50713849,11.49683175,306.5402677,1.341060333
4/18/23 0:12,826.9319119,28.48978065,11.50314172,304.2912109,1.271796582
4/18/23 0:12,826.8183435,28.57182048,11.58360084,311.8476117,1.202534316
4/18/23 0:12,826.9603039,28.49293672,11.6072609,311.8476085,1.173909428
4/18/23 0:12,826.9508719,28.49451661,11.65143666,314.1051786,1.217729807
4/18/23 0:12,826.9414212,28.49451981,11.67826196,312.2650546,1.255895617
4/18/23 0:12,826.9414113,28.49609174,11.63092946,317.2998139,1.21278198
4/18/23 0:12,826.9508527,28.49451579,11.61199426,319.0376793,1.213135326
4/18/23 0:12,826.8183435,28.4708526,11.56782707,322.1727088,1.273210833
4/18/23 0:12,827.1023215,28.51660155,11.66090449,320.9544816,1.228684247
4/18/23 0:12,827.1117665,28.51975404,11.55993482,314.1903485,1.218435614
4/18/23 0:12,826.9792627,28.49293746,11.55993318,315.0422522,1.256248062
4/18/23 0:12,826.9697739,28.49451266,11.55835648,315.5704287,1.085563748
4/18/23 0:12,826.9697739,28.49451266,11.56624337,308.7040681,1.174262774
4/18/23 0:12,826.8562244,28.47558774,11.54258346,311.7453881,1.108534801
4/18/23 0:12,827.1117665,28.61756526,11.53469106,310.1693524,1.112774184
4/18/23 0:12,826.8372835,28.49136136,11.53785308,310.1778786,1.113481877
4/18/23 0:12,826.9982098,28.49609531,11.55993914,304.7001413,1.163308752
4/18/23 0:12,826.9508527,28.59548129,11.53469419,310.1778666,1.112421272
4/18/23 0:12,826.8751501,28.5828618,11.37378072,302.1273771,1.23963907
4/18/23 0:12,826.9414113,28.59548129,11.51260709,308.3292538,1.202180469
4/18/23 0:12,827.0265652,28.60810004,11.48736497,309.6752509,1.162954571
4/18/23 0:12,826.8751599,28.58128749,11.43215199,303.3882216,1.190166409
4/18/23 0:12,826.9698061,28.5939052,11.33749565,303.7971223,1.118782599
4/18/23 0:13,826.9319414,28.59705962,11.3848195,306.4720923,1.239992416
4/18/23 0:13,827.0171274,28.71064924,11.49052223,310.0671313,1.202180903
4/18/23 0:13,826.9413984,28.59547913,11.48105261,306.4891266,1.090157728
4/18/23 0:13,826.9414212,28.59548531,11.53154393,313.1766023,1.245647519
4/18/23 0:13,826.9698061,28.69644903,11.53785308,308.71262,1.091572096
4/18/23 0:13,826.9698249,28.69645216,11.53469955,312.6399059,1.037505004
4/18/23 0:13,826.9603039,28.69644605,11.50945207,308.3207139,1.140691445
4/18/23 0:13,826.969799,28.69644783,11.5331169,303.7885928,1.201473811
4/18/23 0:13,826.9508661,28.69802736,11.53942665,308.1929495,1.256955254
4/18/23 0:13,826.9698249,28.69487382,11.53785144,307.3751201,1.163662632
4/18/23 0:13,826.9413756,28.69329132,11.5078709,303.0303954,1.239285324
4/18/23 0:13,826.969799,28.69329356,11.4321514,303.3796697,1.190165541
4/18/23 0:13,826.7994322,28.67278598,11.36746963,305.9183676,1.296887543
4/18/23 0:13,826.979277,28.7027625,11.34380912,311.5494624,1.290526817
4/18/23 0:13,826.9603549,28.69645216,11.48579036,311.8561516,1.283812778
4/18/23 0:13,827.0549689,28.50555517,11.36746799,311.873146,1.397247283
4/18/23 0:13,826.8846299,28.48189794,11.52365704,310.0415849,1.317384274
4/18/23 0:13,826.9697927,28.69802512,11.51260709,315.5789429,1.229037559
4/18/23 0:13,826.960329,28.69487189,11.48579081,319.1399093,1.372157624
4/18/23 0:13,826.9697739,28.69644605,11.43530389,317.282751,1.356254857
4/18/23 0:13,826.9035578,28.58444214,11.47475061,317.0868402,1.423752346
4/18/23 0:13,826.9414113,28.59548129,11.41006326,317.4446274,1.397601097
4/18/23 0:13,826.8751572,28.68540682,11.42584299,317.189073,1.351661727
4/18/23 0:13,826.8373086,28.59233104,11.38482591,319.1569842,1.408203576
4/18/23 0:13,827.0266032,28.60810399,11.45108399,315.4341466,1.413857193
4/18/23 0:13,826.9319548,28.79741691,11.36746963,317.2998002,1.356255791
4/18/23 0:13,826.9319414,28.59548129,11.44003724,317.2998139,1.245646551
4/18/23 0:13,827.0833623,28.61756623,11.29174349,320.4177736,1.355548248
4/18/23 0:13,826.9603361,28.69644903,11.47947868,317.1549866,1.4248121
4/18/23 0:13,826.9603227,28.59548129,11.41164159,317.1634976,1.312789276
4/18/23 0:13,826.9319284,28.59547913,11.48263094,322.7008785,1.386645889
4/18/23 0:13,826.9319512,28.59548531,11.5078785,325.3588351,1.312436898
4/18/23 0:13,827.0171238,28.60810004,11.37850781,320.1110696,1.312435429
4/18/23 0:13,826.8846236,28.59548666,11.41164695,325.3588552,1.453789833
4/18/23 0:13,826.9319512,28.59548531,11.53469582,320.9544848,1.382760003
4/18/23 0:13,826.941389,28.59548233,11.5110298,319.1484323,1.407849362
4/18/23 0:13,827.0076632,28.60968232,11.37062726,318.2368963,1.435413628
4/18/23 0:13,826.9319512,28.59548531,11.33276483,316.763132,1.52446645
4/18/23 0:13,827.0455168,28.61598887,11.35642265,315.6896838,1.462269866
4/18/23 0:13,826.8467785,28.58286582,11.42742177,315.9708547,1.383113415
4/18/23 0:13,826.9224848,28.59548353,11.50787433,315.5874779,1.457323258
4/18/23 0:13,826.8088923,28.57182123,11.45739471,320.7670765,1.541428821
4/18/23 0:13,826.9603039,28.59390222,11.33906861,311.8561314,1.542134278
4/18/23 0:13,826.9508626,28.59705649,11.2854292,312.1287383,1.607863419
4/18/23 0:13,826.9414212,28.59548531,11.28859063,316.3627318,1.485594399
4/18/23 0:13,827.0928265,28.60494576,11.43530389,318.2368878,1.435766022
4/18/23 0:13,826.931932,28.5954845,11.56151471,326.2618425,1.480293159
4/18/23 0:13,826.9603612,28.59548531,11.55836125,325.3758811,1.317737553
4/18/23 0:13,826.9697739,28.59390222,11.53784772,322.1726798,1.469690697
4/18/23 0:13,826.9603612,28.59390937,11.40849133,315.5619315,1.457677205
4/18/23 0:13,827.1780278,28.71064387,11.43845578,312.2224397,1.256954319
4/18/23 0:13,826.941389,28.69487189,11.3879772,318.6202645,1.327984784
4/18/23 0:13,827.1117665,28.61914359,11.44161244,318.628765,1.329397767
4/18/23 0:13,826.9603612,28.69487487,11.5299656,320.9459876,1.383820107
4/18/23 0:13,826.7899622,28.67278598,11.51103099,311.6857522,1.478879559
4/18/23 0:13,826.941402,28.69645,11.43530545,311.8305967,1.481706676
4/18/23 0:13,826.9130398,28.6964532,11.38798257,319.1399383,1.408556988
4/18/23 0:13,826.9319548,28.69487308,11.63408359,323.885031,1.569698994
4/18/23 0:13,826.8467464,28.68382834,11.64828261,322.6838498,1.435413144
4/18/23 0:13,826.9413926,28.69802438,11.6119959,330.8024749,1.734374459
4/18/23 0:14,826.9414113,28.59705962,11.58675527,327.8123137,1.558036945
4/18/23 0:14,826.9508398,28.59547913,11.53469203,320.9459413,1.382758617
4/18/23 0:14,826.9508912,28.59548531,11.60569211,325.3418149,1.513865006
4/18/23 0:14,826.9603039,28.59548055,11.55993482,315.4341124,1.568637955
4/18/23 0:14,826.941389,28.79583739,11.43530329,310.9786725,1.758758328
4/18/23 0:14,826.9603612,28.59390937,11.43688699,311.6176165,1.61281213
4/18/23 0:14,826.9698249,28.59548666,11.50787746,312.5035896,1.585248249
4/18/23 0:14,826.8088986,28.67278777,11.48263951,320.0770291,1.791977246
4/18/23 0:14,827.0265652,28.70591126,11.58675214,318.2368878,1.706457131
4/18/23 0:14,826.941389,28.69487189,11.63250407,316.3797488,1.66299165
4/18/23 0:14,826.9319476,28.69329356,11.58044299,321.3463588,1.818833401
4/18/23 0:14,826.9130206,28.69487166,11.67983708,318.5010059,1.747450542
4/18/23 0:14,826.9224812,28.59390937,11.66090508,319.5403384,1.759466088
4/18/23 0:14,826.9224906,28.69645,11.48105798,310.9616382,1.684901848
4/18/23 0:14,826.9035377,28.69487189,11.45739039,313.8155141,1.553442948
4/18/23 0:14,826.9224526,28.69644605,11.55519982,307.383623,1.453435185
4/18/23 0:14,826.8656836,28.69645216,11.31225502,306.8554754,1.613165443
4/18/23 0:14,826.9603039,28.69802438,11.60883923,317.8535336,1.66758508
4/18/23 0:14,827.0265768,28.70906748,11.61672806,317.08681,1.588427494
4/18/23 0:14,827.0928515,28.61914538,11.6340824,324.9328628,1.514570897
4/18/23 0:14,826.9130014,28.69960345,11.65774678,319.1739956,1.414563568
4/18/23 0:14,826.9035506,28.69645,11.70823274,324.5580432,1.41350378
4/18/23 0:14,826.9035314,28.69644918,11.61042069,322.1556507,1.458382995
4/18/23 0:14,826.9129884,28.69486868,11.60726187,322.5730852,1.568284626
4/18/23 0:14,826.9224776,28.69487189,11.58202132,311.8390823,1.733668168
4/18/23 0:14,826.9130148,28.69802736,11.58517917,320.5796569,1.73437526
4/18/23 0:14,826.9130014,28.59548129,11.68614244,322.9819943,1.723066623
4/18/23 0:14,826.9130206,28.69487166,11.51261029,319.0036304,1.480646572
4/18/23 0:14,826.9792819,28.70749354,11.73031983,325.3417976,1.623766537
4/18/23 0:14,826.780511,28.57182123,11.73505222,326.7730017,1.596909931
4/18/23 0:14,827.0076632,28.70591521,11.64512811,326.2703655,1.38664669
4/18/23 0:14,827.064451,28.71853173,11.6309273,317.1294197,1.585953789
4/18/23 0:14,826.9413926,28.69802438,11.6119959,328.2212199,1.613164208
4/18/23 0:14,826.9224526,28.69802438,11.53626939,319.0035962,1.536126664
4/18/23 0:14,826.9508912,28.6964532,11.56151792,320.4007481,1.66829324
4/18/23 0:14,826.9603039,28.59548055,11.53942605,320.9629821,1.707163956
4/18/23 0:14,826.9508912,28.59390937,11.608844,322.1642083,1.713172905
4/18/23 0:14,826.9698061,28.69802736,11.68614467,322.9649861,1.723420403
4/18/23 0:14,826.9603419,28.59390616,11.53627572,323.0927589,1.652390556
4/18/23 0:14,826.8940614,28.5828618,11.42583703,314.7014872,1.640375144
4/18/23 0:14,826.9887362,28.69645216,11.53785144,323.0927706,1.65239104
4/18/23 0:14,826.9603097,28.59390318,11.72873614,332.3870348,1.64037466
4/18/23 0:14,826.8183435,28.57024215,11.70665344,329.7376197,1.765119622
4/18/23 0:14,826.9603612,28.59390937,11.48106118,318.2369136,1.595849793
4/18/23 0:14,826.9508398,28.69486868,11.52995703,317.1549629,1.662637787
4/18/23 0:14,826.799451,28.67436506,11.48736869,317.7087402,1.711405876
4/18/23 0:14,826.9603612,28.59390937,11.60569211,314.7526339,1.640729458
4/18/23 0:14,826.931932,28.59390616,11.57886682,310.1778839,1.723067074
4/18/23 0:14,826.941402,28.59390616,11.55993638,310.1693609,1.608217716
4/18/23 0:14,826.9508719,28.5954845,11.53627572,313.5769851,1.558390808
4/18/23 0:14,826.8183623,28.58286478,11.59780418,316.9590521,1.583834732
4/18/23 0:14,826.9508912,28.59390937,11.6309311,319.5573844,1.748157818
4/18/23 0:14,826.9508661,28.59706186,11.67983612,320.4518635,1.679247563
4/18/23 0:14,826.9697927,28.59390296,11.73189496,322.6838442,1.679600608
4/18/23 0:14,826.9319476,28.59548233,11.75555666,320.9885478,1.596555684
4/18/23 0:14,826.9508563,28.59705783,11.7855302,321.3633766,1.480999
4/18/23 0:14,826.9508527,28.59548129,11.73504685,322.7008902,1.542134712
4/18/23 0:14,826.9414113,28.39670457,11.85652589,325.0862194,1.586307552
4/18/23 0:14,826.9129826,28.39670144,11.80288335,322.7008733,1.487006447
4/18/23 0:14,826.7805173,28.36988889,11.7508318,320.4177941,1.497256081
4/18/23 0:15,826.9319512,28.39355193,11.73505326,320.4092711,1.542489026
4/18/23 0:15,826.9414212,28.39513026,11.70665761,317.0186929,1.585601761
4/18/23 0:15,826.9413926,28.39512311,11.70349618,321.3463363,1.480998967
4/18/23 0:15,826.9508849,28.29574205,11.65459549,315.4256353,1.52623328
4/18/23 0:15,826.9224776,28.49451445,11.70665224,317.0016437,1.585954239
4/18/23 0:15,826.8940748,28.48505042,11.6703709,315.9026997,1.710698617
4/18/23 0:15,826.9224776,28.29258345,11.70507391,320.0599799,1.608570645
4/18/23 0:15,826.9130148,28.29416059,11.75555786,320.9885543,1.640728924
4/18/23 0:15,826.9319449,28.4960971,11.61199962,320.954505,1.776428325
4/18/23 0:15,826.931932,28.49451661,11.6309279,318.8758371,1.684195023
4/18/23 0:15,826.9319512,28.29258643,11.55993958,311.6431855,1.685255711
4/18/23 0:15,826.799451,28.27996589,11.6687957,318.9440069,1.535067928
4/18/23 0:15,826.9224584,28.29415858,11.63250563,319.156938,1.458029232
4/18/23 0:15,826.9130076,28.29258345,11.58044299,315.5619283,1.819893639
4/18/23 0:15,826.9319226,28.29415761,11.66090032,320.5625819,1.723772881
4/18/23 0:15,826.9224812,28.29416476,11.72874471,324.5410146,1.651330903
4/18/23 0:15,826.9982053,28.30520473,11.66563888,316.8142377,1.554856999
4/18/23 0:15,826.9224584,28.29415858,11.83127997,324.3961548,1.372157173
4/18/23 0:15,826.7994286,28.29258643,11.7318966,322.6753558,1.435767491
4/18/23 0:15,826.799438,28.26892018,11.75713716,329.2094314,1.413150501
4/18/23 0:15,826.9319414,28.19477119,11.78553437,327.9741732,1.441773937
4/18/23 0:15,826.9414212,28.19477521,11.78395768,322.1642083,1.553443882
4/18/23 0:15,826.7994322,28.17110799,11.65932735,324.9413922,1.553089936
4/18/23 0:15,826.9224906,28.29416156,11.73189816,322.7094047,1.524466
4/18/23 0:15,826.9319476,28.1931939,11.7350479,322.709393,1.524112236
4/18/23 0:15,826.9224906,28.19319606,11.67983708,323.8679903,1.792683487
4/18/23 0:15,826.8846299,28.19477521,11.68299218,318.8843774,1.808939583
4/18/23 0:15,826.8940677,28.19477223,11.7350479,320.1707273,1.663345063
4/18/23 0:15,826.9130206,28.19477201,11.85810266,336.6721179,1.679954472
4/18/23 0:15,826.9035698,28.19319688,11.73032304,335.3261212,1.596556618
4/18/23 0:15,826.9035698,28.19477521,11.67983552,323.3483371,1.706812012
4/18/23 0:15,826.9224714,28.19634952,11.66090344,322.7093874,1.486653602
4/18/23 0:15,827.054981,28.2026583,11.60410521,323.0757097,1.64037466
4/18/23 0:15,826.941402,28.19477201,11.77764592,319.5658901,1.624473362
4/18/23 0:15,826.9224776,28.19477223,11.72873934,322.6923728,1.524819062
4/18/23 0:15,826.789968,28.27049851,11.72716317,332.404084,1.596909447
4/18/23 0:15,826.9414212,28.10011826,11.63408776,326.7559613,1.597970135
4/18/23 0:15,826.9319226,28.19634639,11.68456574,322.9564341,1.723419602
4/18/23 0:15,826.9224776,28.1931939,11.70507391,320.4177652,1.696209633
4/18/23 0:15,826.9508719,28.19477201,11.78238091,329.2264774,1.608217716
4/18/23 0:15,826.9224526,28.19634639,11.831279,331.2454642,1.613517487
4/18/23 0:15,826.9130014,28.19319285,11.6845641,328.0849205,1.53648051
4/18/23 0:15,827.045511,28.2200104,11.84863684,327.820825,1.568991318
4/18/23 0:15,826.9035377,28.19477223,11.90543135,326.8922486,1.696209633
4/18/23 0:15,826.7710473,28.26892339,11.8549492,330.8195466,1.663345864
4/18/23 0:15,826.9792439,28.30520116,11.85810109,328.2297172,1.613164208
4/18/23 0:15,826.9130206,28.19477201,11.85495076,330.138025,1.480293159
4/18/23 0:15,826.9035506,28.19477201,11.70981107,321.3633907,1.479939747
4/18/23 0:15,826.9035636,28.10327388,11.75713932,325.887023,1.397602031
4/18/23 0:15,826.9035698,28.19319688,11.73347493,332.9237718,1.458030484
4/18/23 0:15,826.9130148,28.10484909,11.77922328,333.7330468,1.372864716
4/18/23 0:15,826.9035377,28.1931939,11.73031767,326.3896241,1.480646088
4/18/23 0:15,826.9035506,28.19477201,11.73505006,322.6838615,1.436473732
4/18/23 0:15,826.8278386,28.18215333,11.75240537,322.692376,1.396895306
4/18/23 0:15,826.8373086,28.18057738,11.76818391,321.3208188,1.469338753
4/18/23 0:15,826.9130206,28.19477201,11.75713716,322.6753385,1.452375965
4/18/23 0:15,826.7615773,27.978644,11.76344891,324.5324916,1.413857644
4/18/23 0:15,826.9792497,28.11431229,11.72242758,324.6176494,1.412796154
4/18/23 0:15,826.9129826,28.10326777,11.65616532,320.9544591,1.436826127
4/18/23 0:15,826.9224812,28.1016966,11.67983552,327.9401158,1.452376416
4/18/23 0:16,826.9414212,28.00388537,11.78080579,328.0934523,1.536128132
4/18/23 0:16,826.7994322,27.98021816,11.75713619,324.4387677,1.496195309
4/18/23 0:16,827.0076503,28.00388239,11.73031767,322.6838498,1.48630029
4/18/23 0:16,826.941402,28.10327172,11.75555882,319.1399209,1.413857193
4/18/23 0:16,826.9319476,28.00230406,11.70507391,320.9374356,1.371450932
4/18/23 0:16,826.9414149,27.90291883,11.75556099,322.5816231,1.361557014
4/18/23 0:16,826.9508912,27.90291987,11.78080579,320.9630078,1.38240659
4/18/23 0:16,826.9981839,27.90291272,11.7303135,322.7008733,1.486299756
4/18/23 0:16,826.9508719,27.90291667,11.75871549,324.5495203,1.45767662
4/18/23 0:16,826.9982111,27.91080654,11.69245718,319.0632559,1.537894745
4/18/23 0:16,826.998217,27.90765084,11.68772315,319.0462152,1.537894828
4/18/23 0:16,826.9792949,27.90291883,11.73820888,316.3712492,1.345654781
4/18/23 0:16,826.9508912,27.90134154,11.73032304,317.2998227,1.508210938
4/18/23 0:16,826.9603039,27.90291272,11.72873517,311.8390855,1.480645688
4/18/23 0:16,827.1117853,27.92657889,11.62146424,321.3889423,1.480646122
4/18/23 0:16,826.960329,27.89976023,11.65616949,320.9715018,1.435413144
4/18/23 0:16,826.9508719,27.90133834,11.78080258,327.9400985,1.371451283
4/18/23 0:16,826.9413984,27.90133536,11.67983172,333.3496689,1.452021618
4/18/23 0:16,827.0928265,27.91868888,11.75397893,329.2349662,1.28981889
4/18/23 0:16,826.9319476,27.90133856,11.731896,329.2179427,1.344947121
4/18/23 0:16,827.0455052,27.91395627,11.61830445,323.6464871,1.338939106
4/18/23 0:16,827.026584,27.91395701,11.67352056,327.9571272,1.361909492
4/18/23 0:16,826.8751407,27.88871884,11.69561086,323.6294754,1.342120571
4/18/23 0:16,826.9603361,27.90449403,11.65932735,317.2998002,1.256601841
4/18/23 0:16,826.941389,27.90133856,11.60410841,317.1720262,1.273563845
4/18/23 0:16,826.931932,27.90133834,11.68141065,324.9499204,1.508563766
4/18/23 0:16,826.9508527,28.00388135,11.73031663,326.2788712,1.513864105
4/18/23 0:16,826.780498,27.87767529,11.68298898,327.9656675,1.453789482
4/18/23 0:16,826.9508599,27.90449299,11.73189615,325.8955234,1.313142955
4/18/23 0:16,826.780511,27.87925579,11.70981323,329.5331879,1.344594676
4/18/23 0:16,826.9792439,27.91237794,11.70980473,320.0855264,1.313142254
4/18/23 0:16,826.8373023,27.89029695,11.54889499,318.6032419,1.328692443
4/18/23 0:16,826.9130076,27.89976023,11.60726508,317.2827735,1.344593842
4/18/23 0:16,826.771028,28.00072789,11.70507607,315.4341466,1.413150501
4/18/23 0:16,826.8373086,27.89976321,11.58675691,320.9544848,1.339647267
4/18/23 0:16,826.9130398,28.00388537,11.7539837,325.8785056,1.311730072
4/18/23 0:16,826.9129826,27.90291272,11.7082264,327.5737561,1.273209965
4/18/23 0:16,826.9413926,28.00387822,11.7303135,320.8437117,1.344593308
4/18/23 0:16,826.9319226,28.00230227,11.68140908,315.4426354,1.190871766
4/18/23 0:16,826.8751501,28.00230302,11.6056857,313.5684706,1.329044921
4/18/23 0:16,826.7994286,27.98022233,11.70350095,317.2827767,1.361557114
4/18/23 0:16,826.9698249,28.00230838,11.70192157,320.9885712,1.372511871
4/18/23 0:16,826.9603419,28.00072789,11.67825875,330.6747158,1.21808322
4/18/23 0:16,826.9792689,28.00230406,11.60726508,323.6464839,1.340353158
4/18/23 0:16,826.9887425,28.00230704,11.60726567,320.1025981,1.312083485
4/18/23 0:16,826.9603039,28.00230227,11.73504849,329.6098231,1.414916413
4/18/23 0:16,826.8940677,28.00072573,11.77764376,324.5324626,1.414563534
4/18/23 0:16,827.1212365,28.00387822,11.77764436,327.9656333,1.442480328
4/18/23 0:16,826.9697739,28.10326777,11.6072609,318.2283648,1.436119435
4/18/23 0:16,826.9698249,28.00546266,11.5630952,323.6465072,1.289820259
4/18/23 0:16,826.9792725,28.0007311,11.68299218,326.7644843,1.228331769
4/18/23 0:16,826.9414078,28.00072886,11.7303208,329.7205841,1.261549318
4/18/23 0:16,827.1023153,28.01965751,11.6845641,331.0665756,1.397601097
4/18/23 0:16,827.0360352,28.0165001,11.8928053,332.0206956,1.458382561
4/18/23 0:16,826.960329,28.10011528,11.78080042,330.6661811,1.317029927
4/18/23 0:16,826.950859,28.10169362,11.78395709,330.1380134,1.239992516
4/18/23 0:16,826.9792439,28.00230227,11.78237458,340.4716109,1.452374947
4/18/23 0:16,826.8183686,28.08749877,11.73347493,329.5928029,1.383820107
4/18/23 0:16,827.0550074,28.11589263,11.74136241,325.0010274,1.2573086
4/18/23 0:16,826.8940614,27.89344825,11.71927308,328.7664505,1.21278198
4/18/23 0:17,827.0455052,28.01492177,11.86756631,334.1078748,1.274623482
4/18/23 0:17,826.8846035,27.98652887,11.71611843,335.9054031,1.383465977
4/18/23 0:17,826.9603039,28.00230227,11.68456574,337.0384177,1.413502896
4/18/23 0:17,826.8845914,27.79090442,11.74766873,337.3366104,1.283105152
4/18/23 0:17,826.9508398,28.00230086,11.70507071,323.6209234,1.239638653
4/18/23 0:17,826.8656899,27.98968755,11.64670964,327.1478385,1.229745286
4/18/23 0:17,826.9508661,28.00388359,11.66247924,327.1648619,1.229391406
4/18/23 0:17,826.9319414,28.00230302,11.73347329,332.0292355,1.301481006
4/18/23 0:17,826.9508661,27.80352853,11.68298801,331.0836337,1.313143055
4/18/23 0:17,826.9698061,28.00388359,11.61357482,328.1104758,1.361909859
4/18/23 0:17,826.9224776,27.80037068,11.60410841,327.5396867,1.273563845
4/18/23 0:17,827.0171238,28.01492177,11.64827844,325.9125461,1.257661145
4/18/23 0:17,827.1023153,27.81456985,11.61199426,327.556727,1.273563812
4/18/23 0:17,826.960329,27.80194901,11.65932616,322.5560565,1.36155618
4/18/23 0:17,826.8278323,27.77986623,11.68772613,323.4931707,1.339293888
4/18/23 0:17,826.9508719,27.80352712,11.6309279,329.6098316,1.344947605
4/18/23 0:17,826.9698311,27.80353032,11.65459653,332.4126243,1.12973799
4/18/23 0:17,826.960329,27.80352496,11.65774783,334.1334405,1.063301156
4/18/23 0:17,826.9603039,27.80352317,11.68298741,329.7461137,1.163307917
4/18/23 0:17,827.017101,27.81456769,11.69087527,333.400781,1.201473293
4/18/23 0:17,826.9508626,27.80194722,11.7303135,335.9991025,1.312788842
4/18/23 0:17,826.8183565,27.7814436,11.73505125,338.6400332,1.351308899
4/18/23 0:17,826.931932,27.80352712,11.68141065,333.3411748,1.372158108
4/18/23 0:17,826.9035184,27.80036986,11.67825339,330.6832098,1.217375526
4/18/23 0:17,826.9035698,27.80353032,11.7318966,329.7546624,1.26225651
4/18/23 0:17,826.9130206,27.80352712,11.67983708,330.6917617,1.217729807
4/18/23 0:17,826.7710473,27.77828895,11.608844,336.3484162,1.162955973
4/18/23 0:17,826.9129884,27.80036986,11.68456194,338.1970085,1.156947107
4/18/23 0:17,826.9224812,27.80353032,11.68299218,333.7330693,1.284166291
4/18/23 0:17,826.9224906,27.80352712,11.75398049,337.0299289,1.372158108
4/18/23 0:17,826.9319512,27.80195199,11.82971021,339.1511916,1.272858021
4/18/23 0:17,827.0171332,27.81457067,11.84548554,343.2232826,1.341767159
4/18/23 0:17,826.9414212,27.80195199,11.78553601,335.5902308,1.257309134
4/18/23 0:17,826.941389,27.80352496,11.78237875,341.4086986,1.312435963
4/18/23 0:17,827.0076597,27.81298935,11.81708453,337.8647665,1.202886877
4/18/23 0:17,826.9508719,27.80195117,11.85495076,337.8136833,1.246000414
4/18/23 0:17,827.0928381,27.82403387,11.87545513,337.9329299,1.249886835
4/18/23 0:17,826.9697797,27.80194581,11.72873614,336.3995079,1.141044874
4/18/23 0:17,826.9508912,27.80195199,11.73505326,336.3995284,1.140692847
4/18/23 0:17,826.8940806,27.89187312,11.81550679,336.3909881,1.201474228
4/18/23 0:17,826.9508778,27.80037381,11.68141162,337.7881195,1.239286191
4/18/23 0:17,826.9697739,27.80352317,11.68298741,342.2350453,1.213134892
4/18/23 0:17,826.8940614,27.78617181,11.72242974,339.1170908,1.27427057
4/18/23 0:17,827.036041,27.7135998,11.72715781,344.0921863,1.284164906
4/18/23 0:17,826.960329,27.90133856,11.68141325,341.4257445,1.301127694
4/18/23 0:17,826.9508912,27.90134154,11.73347493,341.8261737,1.257309134
4/18/23 0:17,826.9697739,27.90291272,11.73189183,339.5515403,1.31844291
4/18/23 0:17,827.1023023,27.72464335,11.73031447,335.5987076,1.217728939
4/18/23 0:17,826.9508719,27.70256162,11.73189816,336.3995111,1.174617138
4/18/23 0:17,826.9508719,27.70098329,11.68141065,338.2140834,1.158008146
4/18/23 0:17,826.9130398,27.90134154,11.68772717,333.3411921,1.20253485
4/18/23 0:17,826.941402,27.80195117,11.68614564,333.3496978,1.202534332
4/18/23 0:17,827.017101,27.71517813,11.67194483,332.429624,1.185217714
4/18/23 0:17,826.8940806,27.89976239,11.63250623,335.5902135,1.256955271
4/18/23 0:17,826.941389,27.70098113,11.6340824,332.4040723,1.129737122
4/18/23 0:17,826.9603227,27.9044918,11.55993318,329.2094399,1.162955005
4/18/23 0:17,826.9508527,27.90291585,11.56308984,329.7546536,1.113481443
4/18/23 0:17,827.0266032,27.91396022,11.58202348,329.2350004,1.130090885
4/18/23 0:17,826.9319476,27.70255946,11.50945147,336.4080224,1.201473811
4/18/23 0:17,826.8940721,27.69467093,11.52680432,334.6190231,1.189811895
4/18/23 0:18,826.9413926,27.90449105,11.58833047,332.0036754,1.257307732
4/18/23 0:18,827.0265652,27.70886861,11.43845578,333.7330436,1.273916724
4/18/23 0:18,826.9129884,27.90133536,11.43687842,328.0763859,1.35625494
4/18/23 0:18,826.9603097,27.70098031,11.48578761,329.2349714,1.284164906
4/18/23 0:18,826.9129826,27.90291272,11.44003411,326.7729815,1.274623482
4/18/23 0:18,826.9130076,27.90133856,11.4889427,329.2009225,1.257308266
4/18/23 0:18,826.8656801,27.90133752,11.51260709,330.7002674,1.262608955
4/18/23 0:18,826.9224776,27.90133856,11.43530329,328.4597573,1.285225461
4/18/23 0:18,826.9035564,27.90133931,11.68298995,334.1419804,1.356609237
4/18/23 0:18,826.9319512,28.00388537,11.63566609,336.7914056,1.17391083
4/18/23 0:18,826.9414212,28.00230704,11.60569211,333.3326692,1.436827595
4/18/23 0:18,826.9508661,27.9029157,11.68141445,326.7644618,1.284165757
4/18/23 0:18,826.9224812,27.90291987,11.38798257,336.4080514,1.625533917
4/18/23 0:18,826.941402,28.00230622,11.92752061,335.0534971,1.723067074
4/18/23 0:18,826.9129884,28.00230086,11.85652373,338.4525951,1.781727829
4/18/23 0:18,827.0455302,28.02596711,11.86283549,348.6669364,1.775720799
4/18/23 0:18,826.8940426,28.00545655,11.95275804,349.8595914,1.707517369
4/18/23 0:18,826.9035377,28.00230406,11.90543135,345.1230216,1.759111741
4/18/23 0:18,826.9319449,28.00388433,11.70507824,336.6636324,1.568639324
4/18/23 0:18,826.9130398,28.00388537,11.75714036,342.3202752,1.651330903
4/18/23 0:18,826.9035126,28.00387822,12.03005811,351.1970824,1.77501344
4/18/23 0:18,826.9130076,28.00230406,11.93224867,356.5726123,1.508916829
4/18/23 0:18,826.9413984,28.00387919,11.94960234,360.1676477,1.311021996
4/18/23 0:18,826.8088794,27.97706485,11.98115525,350.7456043,1.129737473
4/18/23 0:18,826.8845977,27.88871668,11.94013556,350.7967048,1.021248591
4/18/23 0:18,826.9508398,27.90133536,11.95275424,332.0121778,1.161894417
4/18/23 0:18,826.9603612,28.00230704,11.68457051,322.692376,1.162955973
4/18/23 0:18,826.9698311,28.00230704,11.65932675,327.1734075,1.228685181
4/18/23 0:18,826.9508398,27.90133536,11.61041853,330.1550421,1.146345596
4/18/23 0:18,826.9508912,27.90134154,11.613579,330.683256,1.228685181
4/18/23 0:18,826.9603612,27.90291987,11.83128854,334.1504897,1.239993384
4/18/23 0:18,826.9508398,27.90133536,11.75555823,334.1334232,1.397247334
4/18/23 0:18,826.9319512,27.90291987,11.65617486,332.932269,1.372158558
4/18/23 0:18,826.8467464,27.88871668,11.7934223,334.5849528,1.478879292
4/18/23 0:18,826.9698177,27.90291764,11.78080355,337.0384571,1.413503864
4/18/23 0:18,826.9035435,27.89818287,11.75713596,331.0665865,1.442127533
4/18/23 0:18,826.9224906,27.90133834,11.80446801,336.4080341,1.344947605
4/18/23 0:18,826.9224906,27.90291667,11.72716317,332.9407747,1.339646816
4/18/23 0:18,827.0928515,27.92500161,11.64196928,328.7919994,1.285225461
4/18/23 0:18,826.9697927,27.90291585,11.5883336,327.9656502,1.328338096
4/18/23 0:18,826.9319284,27.90133536,11.65774462,330.1550421,1.361909142
4/18/23 0:18,826.8656863,27.69467257,11.78237875,333.7586093,1.372157624
4/18/23 0:18,826.9319512,27.70414077,11.73505326,330.1550626,1.361557114
4/18/23 0:18,826.9414212,27.90291987,11.7318966,332.949315,1.339647267
4/18/23 0:18,826.9603097,27.90133536,11.72873614,332.0036806,1.300420418
4/18/23 0:18,826.9603612,27.70256244,11.82971021,332.4041013,1.339293988
4/18/23 0:18,826.931932,27.90291667,11.82655034,332.4211299,1.338940125
4/18/23 0:18,827.0738924,27.92657673,11.89754126,331.6203007,1.38311203
4/18/23 0:18,826.7994286,27.67889939,11.7508318,331.0836562,1.408203576
4/18/23 0:18,826.9413984,27.70255864,11.90069315,329.6098284,1.413149567
4/18/23 0:18,826.950859,27.70255946,11.85810049,329.7461362,1.371804211
4/18/23 0:18,826.9508719,27.90291667,11.86756787,329.7461479,1.372864799
4/18/23 0:18,826.8278323,27.67889835,11.85810482,329.7461595,1.373218563
4/18/23 0:18,826.9603612,27.90134154,11.80288812,331.0921534,1.436474183
4/18/23 0:18,826.941402,27.90133834,11.80131135,332.412607,1.340000229
4/18/23 0:18,826.9792725,27.90134154,11.80604478,329.7546624,1.372511971
4/18/23 0:18,826.960367,27.70098507,11.74925444,330.6747383,1.328692493
4/18/23 0:18,827.0455052,27.61578999,11.82497045,334.150464,1.272856553
4/18/23 0:18,826.9603227,27.60317124,11.84390401,329.7631765,1.372157524
4/18/23 0:18,826.960329,27.60159396,11.84705695,328.8090453,1.355902112
4/18/23 0:19,826.9603097,27.60001242,11.8155062,329.7461189,1.327984333
4/18/23 0:19,826.8278193,27.59055257,11.64828477,331.0751159,1.397248268
4/18/23 0:19,826.950859,27.60159396,11.74293955,333.3411632,1.371804211
4/18/23 0:19,826.9603039,27.60316812,11.81708356,334.150464,1.356608269
4/18/23 0:19,826.9035448,27.59370588,11.62461837,327.5311959,1.202180903
4/18/23 0:19,826.9319476,27.60159396,11.63566073,326.7644553,1.283811944
4/18/23 0:19,827.0549953,27.61894763,11.80446503,333.4263629,1.330105343
4/18/23 0:19,826.9414212,27.50220738,11.78553601,325.3588351,1.34600816
4/18/23 0:19,826.9508398,27.50062525,11.72873614,320.818148,1.312788925
4/18/23 0:19,826.8183623,27.4785433,11.8092004,329.4990959,1.378519351
4/18/23 0:19,826.941402,27.50220656,11.9527596,331.9866636,1.469691715
4/18/23 0:19,826.950859,27.50062607,11.95117911,337.004374,1.413856843
4/18/23 0:19,826.9603419,27.50220656,11.72400651,332.0207298,1.45767662
4/18/23 0:19,826.8656899,27.48800956,11.66564008,320.4177941,1.344594643
4/18/23 0:19,826.9603612,27.50063144,11.84864064,332.0037011,1.301128628
4/18/23 0:19,826.8846107,27.49274135,11.75555882,329.1924112,1.257308683
4/18/23 0:19,826.9508719,27.50220656,11.82497678,332.404084,1.289819908
4/18/23 0:19,826.9224848,27.4895861,11.71296676,329.7205737,1.359436238
4/18/23 0:19,826.9792439,27.50220262,11.69718286,323.586852,1.361555645
4/18/23 0:19,827.036041,27.51324475,11.48736594,320.9629873,1.38487896
4/18/23 0:19,826.9508626,27.50377856,11.37850781,320.3581332,1.301480572
4/18/23 0:19,826.941389,27.5022044,11.6735216,319.5062432,1.458029683
4/18/23 0:19,826.9508398,27.5022012,11.77606699,327.113726,1.317736168
4/18/23 0:19,826.9603549,27.50220872,11.7697612,331.9185171,1.302188632
4/18/23 0:19,826.8467593,27.50062823,11.71769795,333.6478736,1.372864799
4/18/23 0:19,827.017101,27.5022012,11.76344512,333.9886097,1.240345411
4/18/23 0:19,826.9508661,27.50378393,11.62461837,327.8719609,1.454142811
4/18/23 0:19,826.7994286,27.49747477,11.54258748,330.5469397,1.22939194
4/18/23 0:19,826.9319284,27.50062525,11.56782267,325.7165998,1.301834068
4/18/23 0:19,826.9224584,27.50062525,11.63881419,323.4675869,1.339292603
4/18/23 0:19,826.9319476,27.5022044,11.67194327,322.368628,1.36155618
4/18/23 0:19,826.9414113,27.50220336,11.59148549,315.8260065,1.384172618
4/18/23 0:19,826.9508398,27.50062525,11.4715874,315.238192,1.412796154
4/18/23 0:19,826.9792689,27.6031699,11.51576479,316.9760747,1.312789376
4/18/23 0:19,827.036041,27.51324475,11.70034049,322.4878811,1.396540642
4/18/23 0:19,826.9508527,27.50378169,11.66879033,329.4138886,1.343886917
4/18/23 0:19,826.9508719,27.50220656,11.73820672,324.3450716,1.45166914
4/18/23 0:19,826.9508778,27.59844042,11.76187312,320.7330038,1.434353473
4/18/23 0:19,826.9035698,27.60001861,11.71296616,329.013523,1.343534539
4/18/23 0:19,826.9697927,27.60317124,11.66405534,326.1936928,1.478879192
4/18/23 0:19,826.9792819,27.50062823,11.70823274,322.6923587,1.630480843
4/18/23 0:19,826.9603612,27.60317527,11.66248342,318.9013976,1.435767491
4/18/23 0:19,826.9508398,27.49904692,11.68456194,325.9807094,1.418803635
4/18/23 0:19,826.9414212,27.50063144,11.61200067,333.7330693,1.60680465
4/18/23 0:19,826.9508912,27.60317527,11.61042233,328.4853295,1.707518704
4/18/23 0:19,826.9414212,27.50220738,11.66090508,329.4479894,1.550970261
4/18/23 0:19,826.7899644,27.58266509,11.65932772,324.0128263,1.618113003
4/18/23 0:19,826.9508719,27.60159612,11.58675847,319.9407213,1.656277828
4/18/23 0:19,826.9508398,27.5022012,11.61041853,324.8306211,1.573232002
4/18/23 0:19,826.9413984,27.60159075,11.63407919,317.913174,1.427991695
4/18/23 0:19,826.7994152,27.57635333,11.63408553,313.6706917,1.432939956
4/18/23 0:19,826.941427,27.60159791,11.58202765,317.0868562,1.388060875
4/18/23 0:19,826.9697739,27.60316812,11.70507451,327.6589602,1.433999093
4/18/23 0:19,826.960329,27.6031699,11.65774783,333.0174441,1.470751469
4/18/23 0:19,826.9887519,27.60159612,11.63566289,315.1019046,1.404315853
4/18/23 0:19,826.950859,27.6031699,11.58517798,314.6929698,1.372864449
4/18/23 0:19,827.0455168,27.60316767,11.58201908,313.2361964,1.290525882
4/18/23 0:19,827.1117915,27.62683533,11.57886465,317.4872222,1.274624016
4/18/23 0:19,826.969799,27.60159396,11.63092574,320.6051936,1.372511036
4/18/23 0:19,826.969799,27.6031699,11.53153857,316.9420085,1.350601323
4/18/23 0:20,826.960329,27.6031699,11.55678233,315.2296863,1.372157624
4/18/23 0:20,826.950859,27.60159396,11.53153857,311.8902202,1.24458648
4/18/23 0:20,826.7994286,27.57793389,11.51892205,316.8227672,1.261903098
4/18/23 0:20,826.941389,27.60159396,11.52680834,313.2277112,1.316323235
4/18/23 0:20,826.9698119,27.70256162,11.58360181,323.2631414,1.277451468
4/18/23 0:20,826.8751599,27.58897744,11.55678292,316.8057212,1.305722592
4/18/23 0:20,827.0171203,27.6126375,11.50787314,315.067801,1.288405907
4/18/23 0:20,826.9508912,27.60317527,11.57729169,315.6045464,1.332933095
4/18/23 0:20,826.9319284,27.70255864,11.52995703,319.7277206,1.299360313
4/18/23 0:20,826.941389,27.60159396,11.5283819,309.820087,1.305014966
4/18/23 0:20,826.941402,27.60317206,11.46212754,307.8351438,1.370744591
4/18/23 0:20,826.799438,27.67889857,11.50472341,311.4131505,1.385586586
4/18/23 0:20,826.9792819,27.70098329,11.53311906,311.5238979,1.385586586
4/18/23 0:20,826.9508648,27.60159254,11.45581303,309.6667299,1.302894707
4/18/23 0:20,826.8751277,27.68836163,11.57886465,315.0507808,1.33116523
4/18/23 0:20,826.9413984,27.70255864,11.55204413,315.9793314,1.106059961
4/18/23 0:20,826.9508719,27.70098329,11.46054921,311.8646629,1.226210976
4/18/23 0:20,826.9508912,27.70256244,11.40533467,309.80307,1.226211493
4/18/23 0:20,826.7994286,27.67732106,11.33592149,311.8561572,1.243173831
4/18/23 0:20,826.9698119,27.70098329,11.55678449,309.6667364,1.374985142
4/18/23 0:20,826.9508912,27.80353032,11.55993958,311.5153922,1.313497002
4/18/23 0:20,826.931957,27.70256341,11.65144083,328.4768118,1.302542229
4/18/23 0:20,826.9413984,27.80352414,11.70191882,332.9492944,1.521284752
4/18/23 0:20,826.941427,27.80195296,11.65144083,317.8279957,1.465804977
4/18/23 0:20,827.0833623,27.82718718,11.64985774,320.5625871,1.357668457
4/18/23 0:20,826.9413926,27.80352317,11.65616532,315.9793261,1.329751179
4/18/23 0:20,826.9508912,27.80195199,11.47948285,319.1399383,1.443188488
4/18/23 0:20,827.1022965,27.81772099,11.5062954,329.2264689,1.367916539
4/18/23 0:20,827.017101,27.81456769,11.53153536,326.3896068,1.175322962
4/18/23 0:20,826.960367,27.80037463,11.5315449,324.1406196,1.397955494
4/18/23 0:20,826.941389,27.80352496,11.5283819,320.9459586,1.482059739
4/18/23 0:20,826.9508398,27.80352414,11.52522681,322.1386188,1.537540264
4/18/23 0:20,826.941427,27.80195296,11.55205367,322.2834581,1.420572033
4/18/23 0:20,826.9508626,27.80352317,11.64985677,317.8364877,1.284871581
4/18/23 0:20,826.9413984,27.80194581,11.52995703,306.0290912,1.158360624
4/18/23 0:20,826.9603097,27.80194581,11.55835745,309.2237438,1.196525984
4/18/23 0:20,826.9603477,27.80194975,11.5315417,316.729028,1.256955354
4/18/23 0:20,826.8940677,27.78932713,11.46685561,317.3338857,1.265436089
4/18/23 0:20,827.0360732,27.816149,11.49525819,315.6300724,1.329045372
4/18/23 0:20,827.0644416,27.80352496,11.4542385,313.1595531,1.311729271
4/18/23 0:20,826.8846299,27.78933249,11.43688699,307.7840489,1.366504357
4/18/23 0:20,826.9603097,27.80194581,11.47632239,306.0290912,1.470044193
4/18/23 0:20,827.045511,27.81614363,11.50313971,311.4898027,1.41951046
4/18/23 0:20,826.9697797,27.80194581,11.47947428,315.561911,1.328691158
4/18/23 0:20,826.7994286,27.77986489,11.45897408,320.8011483,1.244234002
4/18/23 0:20,826.9603097,27.80194581,11.45581362,316.8653101,1.344593258
4/18/23 0:20,826.9319512,27.80353032,11.45739575,311.4983462,1.464391377
4/18/23 0:20,826.8656863,27.78932713,11.57729109,313.2703004,1.425871804
4/18/23 0:20,827.0833816,27.80668162,11.57886465,312.2139392,1.366856968
4/18/23 0:20,826.9508626,27.8051015,11.58044358,319.1228665,1.245646117
4/18/23 0:20,826.9225036,27.60475256,11.5268079,326.3811245,1.17391073
4/18/23 0:20,826.9224906,27.80352712,11.52207551,316.7545917,1.256601925
4/18/23 0:20,826.8088794,27.80037284,11.60568891,307.7584884,1.228331318
4/18/23 0:20,826.941389,27.80194901,11.54889067,311.472774,1.129030364
4/18/23 0:20,826.922487,27.80195296,11.52680991,307.8777555,1.222677717
4/18/23 0:20,826.9508398,27.60001242,11.55362246,304.6830772,1.354841423
4/18/23 0:20,826.9508719,27.80352712,11.53311906,307.894779,1.223383942
4/18/23 0:20,826.9603477,27.80037381,11.52838503,315.5448992,1.167196157
4/18/23 0:20,826.969799,27.6031699,11.50472125,311.5068402,1.267202952
4/18/23 0:20,826.9697797,27.60316908,11.45423529,308.3036731,1.211721392
4/18/23 0:21,826.8845977,27.58897208,11.47789916,305.6287084,1.184511406
4/18/23 0:21,826.969799,27.60474823,11.4542385,305.6372314,1.272857087
4/18/23 0:21,826.9792689,27.60474823,11.57571276,313.6877208,1.201120398
4/18/23 0:21,826.9603612,27.80353032,11.48421308,304.2997693,1.28451957
4/18/23 0:21,826.9603097,27.60159075,11.45265696,303.8823026,1.21242815
4/18/23 0:21,826.8846299,27.59055339,11.50472184,304.2997693,1.245647519
4/18/23 0:21,826.9603419,27.60159612,11.4069098,306.0205972,1.223383942
4/18/23 0:21,826.9603612,27.60317527,11.48106118,310.5442094,1.255895617
4/18/23 0:21,826.7520952,27.56846666,11.49368105,311.413157,1.26543684
4/18/23 0:21,826.9698119,27.60317206,11.48263631,311.8220737,1.157301388
4/18/23 0:21,826.9414078,27.6015947,11.50314604,306.9576933,1.183805149
4/18/23 0:21,826.9413948,27.69940376,11.52680454,305.6201906,1.272150412
4/18/23 0:21,826.9413948,27.70098209,11.54100475,309.6667299,1.219496336
4/18/23 0:21,826.9698119,27.70413995,11.55362782,313.6792095,1.200767403
4/18/23 0:21,826.9603039,27.704136,11.55519982,309.7519063,1.223029578
4/18/23 0:21,826.960329,27.70255946,11.50629958,308.2866445,1.24458648
4/18/23 0:21,826.9698177,27.69940592,11.55047213,304.6745884,1.354842308
4/18/23 0:21,826.8940677,27.59055041,11.74766978,310.5612264,1.344240429
4/18/23 0:21,826.9887197,27.80194581,11.67667506,312.1968759,1.354841423
4/18/23 0:21,826.9792689,27.80194901,11.75240477,320.9374356,1.407849362
4/18/23 0:21,826.9603348,27.69940376,11.5741354,312.1883755,1.343533688
4/18/23 0:21,826.9603419,27.70098329,11.67510209,311.7879817,1.408556538
4/18/23 0:21,826.9697797,27.60159075,11.69876215,316.4649357,1.343886566
4/18/23 0:21,827.0265961,27.61106014,11.76975784,315.5789537,1.327631454
4/18/23 0:21,826.960367,27.60159791,11.57256243,315.5108246,1.327278976
4/18/23 0:21,826.9413984,27.60316908,11.59937499,305.6372141,1.28345808
4/18/23 0:21,826.9319476,27.60159396,11.47789916,304.2656484,1.321977303
4/18/23 0:21,827.0171332,27.60317206,11.48263631,309.7519405,1.212075672
4/18/23 0:21,826.9319284,27.60474503,11.50313971,310.5271429,1.343886566
4/18/23 0:21,826.9698311,27.80353032,11.52680894,309.760455,1.300068524
4/18/23 0:21,826.8089022,27.57950805,11.51418765,311.8305915,1.239286091
4/18/23 0:21,826.941389,27.60159396,11.57886465,308.2866445,1.338232949
4/18/23 0:21,826.9319248,27.60159254,11.57571373,310.5186424,1.343180275
4/18/23 0:21,826.9508719,27.60159612,11.55520616,311.4813087,1.310669518
4/18/23 0:21,827.0171203,27.61421345,11.52207335,311.4642511,1.382052376
4/18/23 0:21,826.9603039,27.60632239,11.52522584,307.3580541,1.371450398
4/18/23 0:21,826.941427,27.60159791,11.59937975,309.74344,1.310316639
4/18/23 0:21,826.960329,27.70098113,11.550469,313.1169381,1.390886891
4/18/23 0:21,826.9697739,27.60316812,11.5283825,315.0081691,1.396540558
4/18/23 0:21,827.017101,27.61736691,11.58044455,312.2053989,1.343533154
4/18/23 0:21,826.931957,27.60159791,11.57413599,304.2742056,1.282752724
4/18/23 0:21,826.9129884,27.60159075,11.5504658,306.9576591,1.440360069
4/18/23 0:21,826.931932,27.60317206,11.60253224,313.2873323,1.321624374
4/18/23 0:21,826.9035435,27.60159254,11.62303982,314.9996738,1.395480938
4/18/23 0:21,827.1307074,27.63314463,11.63250481,311.5153673,1.384525764
4/18/23 0:21,826.9508398,27.60159075,11.67509673,313.1169466,1.495841179
4/18/23 0:21,826.922487,27.60159791,11.60253642,304.6746057,1.435060749
4/18/23 0:21,827.1401595,27.63787664,11.57571053,308.0140256,1.471104381
4/18/23 0:21,826.9413984,27.60316908,11.55204413,306.9491361,1.440360069
4/18/23 0:21,826.941427,27.70256341,11.548897,309.74344,1.418451691
4/18/23 0:21,826.9508719,27.50220656,11.57886682,313.6877325,1.467924786
4/18/23 0:21,826.9508778,27.50220515,11.59622466,310.5441973,1.523759258
4/18/23 0:21,826.9697739,27.50220262,11.59937402,310.5441836,1.52375829
4/18/23 0:21,826.9130398,27.48958789,11.63881799,309.7093429,1.490895188
4/18/23 0:21,827.1117915,27.52744578,11.57886465,308.1503539,1.595495579
4/18/23 0:21,826.9698119,27.50378251,11.57886682,311.0723855,1.562277946
4/18/23 0:21,826.8373086,27.47696601,11.62777444,308.2951964,1.518105557
4/18/23 0:21,826.9887197,27.5022012,11.76975367,316.7034506,1.562630424
4/18/23 0:21,826.9224535,27.49747016,11.59306561,308.107743,1.593728416
4/18/23 0:21,827.064451,27.51482308,11.66405318,313.1595358,1.390533028
4/18/23 0:22,826.9887197,27.5022012,11.67509673,307.8862528,1.395833817
4/18/23 0:22,826.9792497,27.50062525,11.6482794,305.2112707,1.35448801
4/18/23 0:22,827.1496429,27.5242915,11.69403037,311.7368579,1.59019479
4/18/23 0:22,826.9887425,27.50220738,11.65143987,314.3437108,1.568286011
4/18/23 0:22,827.0644546,27.51482606,11.66405854,306.9917543,1.623413124
4/18/23 0:22,826.9698311,27.50220738,11.64670964,311.0724028,1.55132354
4/18/23 0:22,826.969799,27.5022044,11.6514345,306.4124627,1.589841378
4/18/23 0:22,826.9603039,27.50220262,11.60410424,304.9642018,1.579239399
4/18/23 0:22,826.941389,27.5022044,11.67036971,311.0723739,1.562631009
4/18/23 0:22,826.9319248,27.50062704,11.69876633,316.7205191,1.562277679
4/18/23 0:22,826.960329,27.50378273,11.70349558,315.5363593,1.479939396
4/18/23 0:22,827.045511,27.51482308,11.72557948,312.7420896,1.395480404
4/18/23 0:22,826.9508778,27.5006292,11.71612059,316.7205307,1.41845124
4/18/23 0:22,826.9698311,27.50378571,11.68614884,311.0553569,1.562985222
4/18/23 0:22,827.0549846,27.51482606,11.70981107,313.2617891,1.535420856
4/18/23 0:22,826.9697797,27.50062525,11.72715781,311.4898027,1.524465199
4/18/23 0:22,826.9698119,27.50220656,11.70981107,315.536371,1.705751324
4/18/23 0:22,826.960329,27.50062607,11.7129608,314.744082,1.623412774
4/18/23 0:22,826.9792555,27.49904789,11.67351936,313.125449,1.606096656
4/18/23 0:22,826.9887291,27.49905087,11.7729119,311.7113316,1.589841945
4/18/23 0:22,826.9698048,27.49904871,11.76187096,311.7964983,1.746390038
4/18/23 0:22,827.1212423,27.51955569,11.77291033,311.4642338,1.716705379
4/18/23 0:22,826.9413984,27.5022012,11.78395388,311.0808796,1.550968876
4/18/23 0:22,826.9698048,27.39966154,11.78395329,313.6451368,1.478879242
4/18/23 0:22,827.0171069,27.41385616,11.79342007,315.6130284,1.480645721
4/18/23 0:22,826.9414078,27.40123965,11.78238188,315.9197304,1.468278282
4/18/23 0:22,826.950897,27.40439713,11.79184554,316.7205223,1.51810564
4/18/23 0:22,826.9508719,27.40439534,11.7902678,316.8482931,1.490187912
4/18/23 0:22,826.9508912,27.40282021,11.74767514,318.5947246,1.462271168
4/18/23 0:22,827.0928515,27.42648028,11.79500063,318.7565551,1.551322739
4/18/23 0:22,826.9319248,27.39966154,11.76502285,318.5776548,1.461916904
4/18/23 0:22,826.9603039,27.40439139,11.81866189,318.5776528,1.518810914
4/18/23 0:22,827.0833874,27.42647886,11.82024059,320.9289179,1.578179779
4/18/23 0:22,826.9508398,27.40281403,11.79814932,315.6641353,1.59019434
4/18/23 0:22,826.9508398,27.40281403,11.82812808,313.9432901,1.577825966
4/18/23 0:22,826.9792725,27.40282021,11.82655354,318.5947246,1.518105557
4/18/23 0:22,826.960367,27.4028188,11.82024596,318.7140001,1.395481873
4/18/23 0:22,826.9603097,27.40281403,11.7492449,316.3456653,1.390179749
4/18/23 0:22,826.9792819,27.40281701,11.78080258,309.7008283,1.322684479
4/18/23 0:22,826.9508648,27.40123749,11.75082741,309.6411867,1.381699047
4/18/23 0:22,826.9792725,27.40439616,11.76502725,309.6326875,1.462624581
4/18/23 0:22,826.8373086,27.37915479,11.85810586,316.5416373,1.5071507
4/18/23 0:22,826.960329,27.30184935,11.88492258,318.5946956,1.506796486
4/18/23 0:22,827.0360732,27.31447101,11.88965497,316.8568161,1.479586468
4/18/23 0:22,826.9792497,27.30184615,11.93540213,313.4150966,1.53471323
4/18/23 0:22,826.8940999,27.28923284,11.77607079,313.6707038,1.423752396
4/18/23 0:22,826.8278386,27.27818929,11.86284085,316.6864509,1.390181
4/18/23 0:22,826.8183552,27.27660872,11.82024275,316.4905131,1.48948117
4/18/23 0:22,827.1023273,27.32393503,11.86125813,316.4819784,1.509977016
4/18/23 0:22,826.9698311,27.30185233,11.76187058,311.7624558,1.490895188
4/18/23 0:22,827.054981,27.3128897,11.75240157,308.899999,1.634013767
4/18/23 0:22,826.9697797,27.30184615,11.76660178,308.2781299,1.606803265
4/18/23 0:22,826.9792783,27.30027497,11.81393263,307.7499622,1.551677036
4/18/23 0:22,826.9792725,27.30500899,11.93698426,308.2866734,1.589842312
4/18/23 0:22,826.9698311,27.20404111,11.84233209,310.3312377,1.548143094
4/18/23 0:22,826.9792725,27.20246278,11.94171925,309.9393605,1.46297786
4/18/23 0:22,826.9697797,27.20403492,11.8943846,311.6431392,1.523758373
4/18/23 0:22,827.0644604,27.21350409,11.8533734,314.9485476,1.682781589
4/18/23 0:22,826.9697797,27.20245898,11.89596293,315.8089489,1.785614967
4/18/23 0:22,826.9887483,27.20088542,11.89123747,312.9295439,1.829789276
4/18/23 0:23,827.026609,27.21350409,11.95749556,311.7368748,1.830142105
4/18/23 0:23,826.8278386,27.17879973,11.91805383,315.6556586,1.492662117
4/18/23 0:23,826.9508719,27.20246196,11.95118127,318.8417709,1.54001482
4/18/23 0:23,826.9603477,27.2008846,11.84863841,316.9846146,1.509623954
4/18/23 0:23,826.9508648,27.20088243,11.82339725,316.5075216,1.493014545
4/18/23 0:23,826.8846357,27.18984425,11.93225501,324.3791603,1.482414036
4/18/23 0:23,826.950897,27.20246375,11.94645045,319.8811086,1.298654957
4/18/23 0:23,827.0833623,27.12515414,11.84705851,317.1294197,1.395126991
4/18/23 0:23,826.8562222,27.08729506,11.88334522,315.4000483,1.444601154
4/18/23 0:23,826.9508398,27.09991276,11.87387583,311.7368664,1.530119267
4/18/23 0:23,826.8845977,27.09045075,11.8943878,305.6372314,1.626946633
4/18/23 0:23,827.0171453,27.1109613,11.86441322,316.9590513,1.560157788
4/18/23 0:23,826.8372835,27.07940839,11.88808044,318.4498885,1.538247941
4/18/23 0:23,826.950859,27.2024598,11.87860926,318.7480321,1.713171971
4/18/23 0:23,826.941427,27.20088542,11.89754603,316.6523899,1.543902626
4/18/23 0:23,826.9603477,27.2008846,11.94645201,308.6103804,1.443894813
4/18/23 0:23,827.1212329,27.12515734,11.85652693,309.9563775,1.462623646
4/18/23 0:23,827.0928381,27.22454466,11.84390282,310.45899,1.525878665
4/18/23 0:23,826.931957,27.10307419,11.82655451,310.0927023,1.50078989
4/18/23 0:23,826.9413948,27.1993041,11.82339725,306.3443098,1.472518349
4/18/23 0:23,826.9413984,27.00052559,11.80130599,308.252561,1.479232121
4/18/23 0:23,826.9697869,27.20561445,11.81550739,307.6647645,1.561570721
4/18/23 0:23,826.8656899,27.18984328,11.82182332,307.7073678,1.56263181
4/18/23 0:23,826.941427,27.10149825,11.80446742,304.6490368,1.507504196
4/18/23 0:23,826.950897,27.09991992,11.87545893,304.2486366,1.434000511
4/18/23 0:23,827.036041,27.11411297,11.88807604,306.7872766,1.446720963
4/18/23 0:23,826.950859,27.00210474,11.87230071,311.7624269,1.536127198
4/18/23 0:23,826.7331731,27.07625687,11.87072871,314.4459404,1.476759834
4/18/23 0:23,826.9319284,27.00052559,11.82654974,312.1713327,1.430465317
4/18/23 0:23,826.9508398,27.09991276,11.77921889,308.6700071,1.351660976
4/18/23 0:23,826.8751277,27.09360503,11.84863528,308.6699987,1.350954735
4/18/23 0:23,826.960329,27.2024598,11.85179194,312.1968932,1.25236089
4/18/23 0:23,826.8845914,27.09202804,11.81550836,312.5291296,1.304661453
4/18/23 0:23,826.941427,27.10149825,11.89912436,314.4544634,1.357316513
4/18/23 0:23,826.9603419,27.10149407,11.8517941,311.8050277,1.393360996
4/18/23 0:23,826.8656957,27.09991992,11.8738806,311.4642853,1.465451698
4/18/23 0:23,826.9792877,27.10149504,11.68298995,308.1418478,1.384879844
4/18/23 0:23,826.9413984,27.10149109,11.62934897,305.0834774,1.367916622
4/18/23 0:23,826.9792725,27.10149728,11.8517973,307.7840489,1.384526932
4/18/23 0:23,826.9319248,27.20088243,11.75082741,304.6916227,1.482766514
4/18/23 0:23,827.0549846,27.10938334,11.82812867,307.3666112,1.449195518
4/18/23 0:23,826.9792819,27.10149407,11.78080258,304.6660602,1.538601303
4/18/23 0:23,826.960329,27.1014943,11.79973086,309.7604518,1.632954113
4/18/23 0:23,826.9508719,27.20246196,11.78080258,304.7001522,1.577120075
4/18/23 0:23,826.9508778,27.2008846,11.77606856,311.8135559,1.48347369
4/18/23 0:23,826.9603419,27.1030724,11.77922425,315.1274478,1.638608665
4/18/23 0:23,826.9603348,27.09991693,11.84390602,312.0776281,1.605036869
4/18/23 0:23,826.941427,27.09991992,11.85337183,308.5507625,1.605391216
4/18/23 0:23,826.7142618,27.06363499,11.79973719,312.0776571,1.649564056
4/18/23 0:23,826.9224906,27.10149407,11.85337243,308.559263,1.605744095
4/18/23 0:23,826.9413948,27.0983386,11.85179291,306.3017206,1.68348793
4/18/23 0:23,826.799438,27.0857203,11.80604157,304.7256954,1.51315773
4/18/23 0:23,826.9603348,27.09991693,11.84863625,303.7545061,1.512097225
4/18/23 0:23,826.9319248,27.10149288,11.7760664,304.2656536,1.523405495
4/18/23 0:23,826.9224834,27.09991693,11.65459213,300.4917212,1.595495663
4/18/23 0:23,826.9224834,27.09991693,11.70349655,300.6280375,1.534006939
4/18/23 0:23,827.1590994,27.13777699,11.68298458,299.5120238,1.559096649
4/18/23 0:23,827.1023215,27.12673567,11.61041697,302.1018138,1.595848992
4/18/23 0:23,826.9319342,27.09991373,11.52680611,302.1018017,1.594788387
4/18/23 0:23,826.9508778,27.2008846,11.65932452,299.1712878,1.678187625
4/18/23 0:24,827.1307136,27.2245463,11.66405817,299.2138697,1.679247029
4/18/23 0:24,826.9508648,26.99894905,11.55677853,298.5153151,1.522698803
4/18/23 0:24,826.9697797,27.20245898,11.53469203,300.6280149,1.524111786
4/18/23 0:24,827.0360468,27.21192278,11.54100155,300.6620864,1.667231834
4/18/23 0:24,826.9035377,27.1898403,11.40532931,297.7315555,1.567578251
4/18/23 0:24,826.8278193,26.97686553,11.41006646,300.5172966,1.663345413
4/18/23 0:24,826.9887197,27.20245898,11.55993578,294.4942964,1.780314178
4/18/23 0:24,826.8562199,26.97686635,11.51418706,300.1850461,1.536128132
4/18/23 0:24,826.9982183,27.10149825,11.58360598,304.691626,1.551677036
4/18/23 0:24,826.9982183,27.3018533,11.6104233,304.7086719,1.513511677
4/18/23 0:24,827.0739304,27.11411692,11.55993735,300.2361719,1.452022636
4/18/23 0:24,827.1401595,27.12515511,11.70349335,303.9163741,1.672885902
4/18/23 0:24,827.2158849,27.13935435,11.64197085,300.6961731,1.535420055
4/18/23 0:24,826.9792877,27.3018501,11.67825972,308.5763142,1.606804283
4/18/23 0:24,827.0171203,27.1014943,11.7539831,305.1175609,1.512803967
4/18/23 0:24,827.0549904,27.11411692,11.64512908,296.0022042,1.585601261
4/18/23 0:24,826.9697855,27.10149206,11.34064888,293.1227444,1.607863452
4/18/23 0:24,826.9792783,27.09991992,11.65617583,303.1752552,1.634015236
4/18/23 0:24,826.9887519,27.10149407,11.63408456,301.1817806,1.480999985
4/18/23 0:24,826.9792877,27.09991671,11.60568987,300.6365464,1.535774353
4/18/23 0:24,826.9792819,27.10149407,11.65932832,301.4458644,1.558744087
4/18/23 0:24,826.9792497,27.10306942,11.7318928,304.7256664,1.523758373
4/18/23 0:24,826.960329,27.09991597,11.75555666,304.4275336,1.55733022
4/18/23 0:24,826.9413756,27.10149206,11.78079819,304.2826823,1.523405044
4/18/23 0:24,826.9224584,27.10149109,11.75555823,308.0481123,1.567931213
4/18/23 0:24,826.9319284,27.09991276,11.77764056,306.8554348,1.524111786
4/18/23 0:24,827.0266032,27.11569428,11.76345048,311.8305967,1.508210354
4/18/23 0:24,826.941427,27.10149825,11.73189757,311.8135475,1.479587002
4/18/23 0:24,826.9887291,27.11411692,11.76660334,311.8390992,1.468631561
4/18/23 0:24,826.9697797,27.10149109,11.70664904,311.8220447,1.396893921
4/18/23 0:24,826.9224584,27.10149109,11.77921889,311.8390907,1.407848778
4/18/23 0:24,826.9224834,27.10149288,11.5346962,310.0245409,1.468277798
4/18/23 0:24,826.9224584,27.10149109,11.43372653,303.7800525,1.344593258
4/18/23 0:24,826.941427,27.10149825,11.51103613,308.1844543,1.129031248
4/18/23 0:24,826.8846035,27.09991693,11.6309267,317.8194695,1.25554142
4/18/23 0:24,826.9319378,27.10149504,11.53312003,311.8135559,1.17355705
4/18/23 0:24,826.9224776,27.1014943,11.50787314,308.3122134,1.423751595
4/18/23 0:24,826.9130264,27.10149504,11.53469836,304.3082545,1.52411267
4/18/23 0:24,826.8751599,27.10307561,11.53469582,315.4511842,1.930856659
4/18/23 0:24,826.9414212,27.10307561,11.51103517,320.0770291,1.792683938
4/18/23 0:24,826.913017,27.10149825,11.53311846,322.5475677,1.557331104
4/18/23 0:24,826.9887255,27.10149206,11.60252785,320.0770138,1.606803348
4/18/23 0:24,826.7899738,27.17722155,11.43688475,317.402035,1.891277416
4/18/23 0:24,827.0076869,27.20877208,11.51734447,310.7401391,1.654157703
4/18/23 0:24,826.8089044,27.19299853,11.82655451,320.4177994,1.678894768
4/18/23 0:24,826.931957,27.20246375,11.73031924,318.8673366,1.684548969
4/18/23 0:24,826.9981861,27.21192598,11.77764473,324.6687841,1.932622738
4/18/23 0:24,826.9982053,27.21350513,11.84075256,328.8601543,1.836149685
4/18/23 0:24,826.941402,27.20088363,11.73347173,329.6098316,1.763706188
4/18/23 0:24,826.950859,27.2024598,11.72873934,325.3503089,1.623766186
4/18/23 0:24,826.8656863,27.1898403,11.40217741,324.6858249,1.695149529
4/18/23 0:24,826.9414078,27.20246293,11.38798033,317.2912876,1.50856385
4/18/23 0:24,826.9224741,27.20088564,11.43530746,320.9630014,1.382406323
4/18/23 0:24,826.8088794,27.18037486,11.34222684,319.9321983,1.311376209
4/18/23 0:24,827.0739232,27.22139217,11.28700887,316.4564147,1.249180543
4/18/23 0:24,826.950897,27.20246375,11.16396067,304.7171949,1.284166241
4/18/23 0:24,826.9603156,27.19930328,11.31224846,319.1314,1.569344814
4/18/23 0:24,826.9698142,27.39966549,11.38955807,322.53905,1.791977279
4/18/23 0:24,826.9887519,27.30185151,11.48421464,317.2912824,1.536481094
4/18/23 0:24,826.9792555,27.30026878,11.31224846,313.5428952,1.679246795
4/18/23 0:25,826.9887389,27.3034253,11.31856402,313.1510301,1.613518021
4/18/23 0:25,826.9698048,27.30184793,11.4116436,323.6294689,1.535420589
4/18/23 0:25,826.9887161,27.30027199,11.26492558,317.2742558,1.317383423
4/18/23 0:25,826.8846165,27.30027415,11.26650607,311.5153801,1.569345748
4/18/23 0:25,826.9981933,27.30185151,11.24283967,311.8476169,1.480999985
4/18/23 0:25,826.9887389,27.50378273,11.28859003,306.3187614,1.679600575
4/18/23 0:25,826.9792747,27.50062704,11.4116436,308.3207159,1.678893967
4/18/23 0:25,826.9603218,27.49589227,11.45896753,308.5677679,1.612810929
4/18/23 0:25,826.950897,27.40124285,11.15923045,305.7906021,1.635428753
4/18/23 0:25,826.8467665,27.48169899,11.49368105,310.7060838,1.653451061
4/18/23 0:25,826.9698119,27.50220656,11.48894486,309.7774837,1.613165092
4/18/23 0:25,826.969799,27.50062607,11.60568675,311.6175876,1.613164742
4/18/23 0:25,826.9698177,27.5006292,11.53312003,310.9616434,1.759112175
4/18/23 0:25,826.9035757,27.38704264,11.53469679,309.7775062,1.679955006
4/18/23 0:25,826.9697797,27.50377953,11.46054385,308.3292421,1.74780302
4/18/23 0:25,826.9603348,27.40123749,11.46054802,309.7945232,1.678540554
4/18/23 0:25,826.9792497,27.4012357,11.38482211,313.5684589,1.667938576
4/18/23 0:25,826.8751335,27.58897305,11.42110882,315.5363646,1.71211195
4/18/23 0:25,826.960367,27.60159791,11.73031924,324.0213493,1.935804119
4/18/23 0:25,827.1780394,27.63945259,11.74451088,319.1739892,1.936862838
4/18/23 0:25,826.960367,27.60317385,11.70508025,320.5455927,1.80399229
4/18/23 0:25,826.960329,27.5022044,11.43688162,326.4066701,1.831201775
4/18/23 0:25,826.960367,27.50220835,11.36273978,313.687755,1.33964735
4/18/23 0:25,826.950897,27.60317385,11.72401068,310.5783066,1.831556206
4/18/23 0:25,826.9508912,27.50220738,11.65775319,313.5855254,1.88138303
4/18/23 0:25,826.9603097,27.60316908,11.71138403,317.4105495,1.893043327
4/18/23 0:25,826.9508648,27.40123749,11.73347054,322.5304928,1.781021538
4/18/23 0:25,827.0833874,27.60159254,11.76187096,322.4112225,1.892337036
4/18/23 0:25,826.9129956,27.59212673,11.62146327,320.0344259,1.834382172
4/18/23 0:25,826.950897,27.60475218,11.77922843,317.8279957,1.662639256
4/18/23 0:25,826.9603477,27.60001875,11.75713812,325.6058867,1.712465713
4/18/23 0:25,827.0644581,27.6173681,11.76975486,325.1628696,1.833675346
4/18/23 0:25,826.9603612,27.60632955,11.68614884,326.0062989,1.759819367
4/18/23 0:25,827.1212387,27.62683392,11.73031864,325.3332682,1.820247002
4/18/23 0:25,826.922487,27.59055436,11.70350192,323.6209491,1.808939667
4/18/23 0:25,826.9887389,27.60474823,11.68456515,326.0062699,1.748863709
4/18/23 0:25,826.9981991,27.60317303,11.67983328,320.9629958,1.77536782
4/18/23 0:25,826.9982183,27.50220835,11.70823214,319.0291961,1.820601349
4/18/23 0:25,826.8372951,27.57793166,11.64670741,315.1700423,1.89233752
4/18/23 0:25,826.9981991,27.6015947,11.70665537,326.738929,1.903999202
4/18/23 0:25,826.913017,27.48958647,11.71927569,324.94142,1.875375633
4/18/23 0:25,826.8562293,27.47854114,11.63408456,327.8293512,2.026269474
4/18/23 0:25,826.9981897,27.60316908,11.65932295,329.0645889,1.82059988
4/18/23 0:25,826.9981803,27.6031699,11.78237875,333.6052728,1.865126584
4/18/23 0:25,826.9887197,27.5022012,11.75713179,335.3346237,1.775720215
4/18/23 0:25,826.9792783,27.60159791,11.60726664,320.9544901,2.076803741
4/18/23 0:25,826.9887389,27.5022044,11.53627356,317.2912965,1.881382229
4/18/23 0:25,826.9792555,27.50062384,11.7334721,330.018731,2.096591861
4/18/23 0:25,826.9887255,27.39965834,11.70980667,329.2179307,2.043937786
4/18/23 0:25,827.0076883,27.40124285,11.73189757,332.1399969,2.10295414
4/18/23 0:25,827.0076632,27.50220656,11.73031983,334.6616457,2.060547695
4/18/23 0:25,826.9887161,27.50062704,11.68614445,333.588232,2.033336792
4/18/23 0:25,827.1307065,27.50377856,11.7082264,331.228444,2.077509015
4/18/23 0:25,826.9697855,27.49904789,11.63250183,334.6616219,2.016727283
4/18/23 0:25,827.1307087,27.52429008,11.70980988,330.6661863,1.908592682
4/18/23 0:25,826.9792747,27.49904871,11.60883961,320.9629841,1.775720749
4/18/23 0:25,826.9698311,27.50378571,11.56151792,327.8464145,1.936157448
4/18/23 0:25,826.8183744,27.47854531,11.58833621,326.7559665,1.930856743
4/18/23 0:25,826.9319342,27.50220217,11.60726284,328.8090333,1.781727779
4/18/23 0:25,826.9603612,27.50220738,11.53469582,319.8384885,1.903292744
4/18/23 0:26,826.941427,27.50063002,11.58517954,326.270388,1.880676289
4/18/23 0:26,826.9319342,27.50062384,11.63565849,327.5652436,1.764765441
4/18/23 0:26,826.7426373,27.47854434,11.608844,327.6845549,1.904706261
4/18/23 0:26,826.6953218,27.48012125,11.58360598,324.9499429,2.096946526
4/18/23 0:26,826.9414212,27.40439616,11.53627416,326.7730073,1.999766247
4/18/23 0:26,826.9413756,27.49904789,11.5078709,320.9544695,1.880675037
4/18/23 0:26,826.9508456,27.50062384,11.58044075,328.8090333,1.847810333
4/18/23 0:26,826.9603097,27.50062525,11.53311369,331.0921329,1.808584919
4/18/23 0:26,826.950897,27.50063002,11.58360598,327.1478437,1.791977329
4/18/23 0:26,827.1212423,27.51797736,11.56150935,322.6838325,1.831554737
4/18/23 0:26,827.1117687,27.42490292,11.55677853,326.8752079,1.858412361
4/18/23 0:26,827.0171247,27.50693537,11.5173391,326.32147,1.882088687
4/18/23 0:26,827.1023273,27.50220537,11.56151352,322.6838551,1.875728111
4/18/23 0:26,826.969799,27.5022044,11.63723906,322.9649797,1.908592598
4/18/23 0:26,827.0455204,27.50536181,11.55835902,322.692364,1.874668357
4/18/23 0:26,826.8940735,27.48800516,11.58675728,324.924345,1.859119186
4/18/23 0:26,826.9698177,27.40281798,11.60568987,328.6897919,1.77536782
4/18/23 0:26,827.0076682,27.40912639,11.61515494,328.7153343,1.708578141
4/18/23 0:26,826.9603348,27.49904871,11.5126091,329.7376184,1.935449772
4/18/23 0:26,826.9603097,27.5022012,11.5078747,329.0816349,1.831201324
4/18/23 0:26,826.9603156,27.50220217,11.48421024,319.5317744,1.808938282
4/18/23 0:26,826.9792747,27.40123749,11.48421345,325.3588371,1.819893589
4/18/23 0:26,826.9887197,27.4012357,11.387974,322.9734854,1.679600124
4/18/23 0:26,826.7710531,27.3633796,11.38009188,321.3037781,1.820247936
4/18/23 0:26,826.9792841,27.39966549,11.65459847,327.820856,1.9085937
4/18/23 0:26,826.9697855,27.40123667,11.67983269,326.7303771,2.016020591
4/18/23 0:26,826.9698048,27.40123749,11.70349655,324.5409908,2.055599918
4/18/23 0:26,826.9508398,27.40281403,11.43530486,324.0383695,1.891983223
4/18/23 0:26,826.9792689,27.40281485,11.60253008,324.0383611,1.891983674
4/18/23 0:26,826.9603477,27.40123965,11.43530642,321.3463499,1.808585804
4/18/23 0:26,826.9603419,27.40439534,11.53784928,325.9040573,1.668292789
4/18/23 0:26,826.9603612,27.40282021,11.55993958,326.0148219,2.071503003
4/18/23 0:26,826.931957,27.4028188,11.60884497,331.4840358,2.157728424
4/18/23 0:26,826.9792949,27.4043975,11.55993854,327.8293629,1.978563259
4/18/23 0:26,826.9413756,27.40281262,11.5078709,327.1563204,1.977855232
4/18/23 0:26,826.9603419,27.40281701,11.51576695,322.9734886,1.931209488
4/18/23 0:26,826.9603156,27.40281262,11.50944923,326.2703417,1.881028316
4/18/23 0:26,826.9130076,27.39019535,11.59937342,322.394197,1.947111371
4/18/23 0:26,826.9981955,27.40123667,11.60726284,322.4282511,1.947464283
4/18/23 0:26,826.8089044,27.38388836,11.58360598,325.3418201,1.820247936
4/18/23 0:26,826.9698177,27.40123965,11.50629794,323.365371,1.961953933
4/18/23 0:26,827.1117687,27.42805719,11.60726604,323.4505634,2.00577301
4/18/23 0:26,826.9603348,27.40123749,11.67825756,326.9007769,2.005066185
4/18/23 0:26,826.9035564,27.3901961,11.55678069,327.9656727,1.97290879
4/18/23 0:26,826.9697855,27.39965834,11.43057083,320.9544695,1.775720298
4/18/23 0:26,826.9698048,27.40281582,11.38797817,327.8378677,1.733668251
4/18/23 0:26,826.9981803,27.40281485,11.61041697,330.8110204,1.737908852
4/18/23 0:26,826.9603097,27.40438998,11.60568354,330.8280491,1.663344612
4/18/23 0:26,826.7615773,27.36811124,11.41164323,317.9813527,1.847811768
4/18/23 0:26,826.9698177,27.40123965,11.60726821,328.6727459,1.706458232
4/18/23 0:26,826.9698048,27.40123749,11.65774879,327.5396919,1.847810917
4/18/23 0:26,826.9981933,27.40439534,11.43530545,326.4152048,1.836856327
4/18/23 0:26,826.8183744,27.37757742,11.55678389,329.0816606,1.819541111
4/18/23 0:26,827.064451,27.41543353,11.62303565,330.6746868,1.569698143
4/18/23 0:26,826.9224977,27.39177465,11.53154192,320.051475,1.622706833
4/18/23 0:26,826.9508648,27.49904871,11.48578701,316.3627081,1.662284908
4/18/23 0:26,827.0360482,27.5164026,11.49841068,317.367941,1.511743679
4/18/23 0:26,826.960367,27.50220835,11.63566706,323.1183246,1.684548969
4/18/23 0:26,826.960367,27.50063002,11.43530962,327.5652899,1.764766827
4/18/23 0:26,827.0171069,27.50220217,11.60884117,328.2041844,1.613517654
4/18/23 0:27,826.9603097,27.5022012,11.53469203,330.163565,1.480292358
4/18/23 0:27,826.9603348,27.50062704,11.60726604,325.3503141,1.580300121
4/18/23 0:27,826.950897,27.50220835,11.53785346,323.1013044,1.652037678
4/18/23 0:27,826.960329,27.50062607,11.56151255,323.1183162,1.586660931
4/18/23 0:27,826.9603477,27.5006292,11.43846308,324.9414027,1.497608993
4/18/23 0:27,826.9603477,27.5006292,11.21601855,317.1635201,1.663698909
4/18/23 0:27,826.969799,27.50062607,11.28859003,320.0685029,1.608924057
4/18/23 0:27,826.9414078,27.5006292,11.26019274,320.1877644,1.663345497
4/18/23 0:27,826.8846299,27.48958789,11.53627416,325.8785056,1.669353478
4/18/23 0:27,826.950859,27.5022044,11.48421248,322.6923728,1.875374615
4/18/23 0:27,826.9414078,27.49905087,11.53469836,325.8444273,1.668999565
4/18/23 0:27,826.9319119,27.60001443,11.28543218,326.8837192,1.908592331
4/18/23 0:27,826.8751657,27.48958647,11.58991454,331.0751384,1.989164886
4/18/23 0:27,826.9414006,27.49904968,11.51103174,332.1229529,1.930502479
4/18/23 0:27,826.9508719,27.60159612,11.43688378,328.6727407,1.776427975
4/18/23 0:27,826.9319248,27.60001659,11.31382999,324.6517382,1.738262215
4/18/23 0:27,826.9413756,27.60159172,11.36115765,323.6209286,1.809291694
4/18/23 0:27,826.9698311,27.60317527,11.53312226,326.3811301,1.837563603
4/18/23 0:27,826.931957,27.50378668,11.43846629,328.6642402,1.776428509
4/18/23 0:27,826.9698083,27.50063002,11.11505625,320.9544901,1.776075096
4/18/23 0:27,826.9603477,27.5006292,11.33907591,326.2703707,1.793036983
4/18/23 0:27,826.9792877,27.70256259,11.28701483,326.5003884,1.74851073
4/18/23 0:27,826.9698048,27.60159254,11.43372593,326.5174227,1.748156967
4/18/23 0:27,826.979252,27.6978264,11.43214857,326.474813,1.747803638
4/18/23 0:27,826.969824,27.60159574,11.38324638,325.3332855,1.864067013
4/18/23 0:27,827.1306895,27.52428927,11.28385281,323.3568448,1.748863208
4/18/23 0:27,826.9792555,27.50062384,11.11505245,322.1471213,1.93120877
4/18/23 0:27,826.9887161,27.70098209,11.06930313,319.0121212,2.113554649
4/18/23 0:27,826.9792783,27.70256341,11.53785346,331.194383,2.000826435
4/18/23 0:27,826.9887161,27.70098209,11.61041794,333.3156252,2.055246506
4/18/23 0:27,827.0076632,27.70098329,11.56151471,336.9447505,2.072209244
4/18/23 0:27,826.9792747,27.70098209,11.6309267,337.0213995,1.908239269
4/18/23 0:27,827.1307145,27.72306778,11.57886659,333.460444,1.908592765
4/18/23 0:27,826.9887197,27.70413458,11.60726187,329.6268486,2.125215797
4/18/23 0:27,826.9697855,27.70098127,11.53153633,329.5842646,2.124862468
4/18/23 0:27,826.9508719,27.70098329,11.53469739,328.2382743,2.102600193
4/18/23 0:27,826.8940677,27.68993996,11.42425974,329.1327644,2.042171357
